timestamp,Signal
0,-0.004482241170974967
1,-0.008448545009203053
2,-0.007044722361141023
3,-0.0035197406045993536
4,-0.0020999590511241693
5,7.619706228204765e-05
6,0.005821006893232292
7,0.008638978809699922
8,0.00850313502789503
9,0.006809010430486278
10,0.01066194840251651
11,0.004145775151462222
12,0.000654951525011993
13,0.0001516919232508098
14,-0.0023536958995632046
15,-0.0019048443349368813
16,-0.0013956099311409741
17,0.001587002633453254
18,-0.0013716230594717493
19,-0.0017618831030088138
20,-0.0012565046708808945
21,0.001064736514001123
22,-0.0015962485938954604
23,0.001970726820899417
24,-0.0042866185947342695
25,0.004221928768666888
26,0.0011599417491437187
27,-0.005352540598787862
28,-0.004888118553675578
29,-0.0045954615466482955
30,0.001956113942519787
31,-0.002005788177646517
32,-0.001907260752165272
33,-0.007032050499930494
34,0.0038786977657725395
35,-0.00882851201232106
36,-6.020947617534078e-05
37,0.0035588085575243376
38,-0.0005148600456740555
39,0.002724702589672749
40,-0.005115185226137577
41,0.00045544186981842476
42,0.0028400561438285087
43,0.0035194421967167065
44,0.0039117257770962845
45,0.008889753990569519
46,-0.0014577432346219313
47,-0.0031371451874335566
48,0.0014267049826592638
49,-0.004334454756906422
50,-0.0016109058407546093
51,-0.0015911221743696753
52,-0.005067881762595405
53,0.0052155858167819945
54,0.00041516175465635373
55,0.005270528672804707
56,0.0029764560498784388
57,0.0018026723700871536
58,0.003882678579105049
59,-0.0074144768386388135
60,-0.0022276771688272724
61,-0.0035585815233794907
62,0.0018959771613925643
63,0.0009788180721518828
64,0.0011106169915490582
65,0.005372903102672021
66,-3.063957885403833e-05
67,-0.00012937337229278287
68,0.004096793028209989
69,-0.0011910957258745285
70,-0.005914143089809727
71,-0.003039464565126112
72,-0.002941093134261299
73,-0.005669435601692902
74,0.004063981009082406
75,0.0048434543096296835
76,0.0015455226396535807
77,0.0048689163720436095
78,-0.0025601011199928693
79,-0.00912615811209292
80,-0.005163276039127895
81,-0.004859174809015014
82,-0.011992901009133902
83,-0.00030490290249299973
84,0.005194556499433487
85,0.01503340175816154
86,0.016337473751692852
87,0.01208344042537654
88,0.007336252051899524
89,0.0059775315194597126
90,0.0077987700861242345
91,0.005016280053563052
92,0.003123902649222349
93,-0.0021330996264381126
94,-0.0073944968753303295
95,-0.012598093464569861
96,-0.0158609910387714
97,-0.024365567826295877
98,-0.011460110268448204
99,-0.012235278935770654
100,-0.01605470325839338
101,-0.006711660609091546
102,-0.0031430069047400627
103,0.0003501402126273416
104,0.007249290523200287
105,0.006805602410135017
106,0.014276993568542262
107,0.013731112814751069
108,0.010825216639029014
109,0.010928272971203398
110,0.005141018908132872
111,0.003679041576714937
112,-0.0004324675051397449
113,-0.004503633624733851
114,0.0021310986237306102
115,0.010148261387635155
116,-0.002869506927529294
117,0.013732983702323913
118,0.011934216685516833
119,0.010979928163002136
120,0.013620070036781375
121,0.0054151841545445785
122,0.003679294718768343
123,-6.035547865812507e-05
124,0.007408672493273736
125,-0.008154181484073129
126,-0.034217721437978854
127,-0.0314635200084256
128,-0.027387357960265677
129,-0.0195790432637462
130,-0.014609653308186688
131,-0.016759082596296146
132,-0.015288796672032827
133,-0.010250862976431803
134,0.00047535307554755213
135,0.0050721471509170835
136,0.009643792047385281
137,0.00873721246445833
138,0.01884447973005817
139,0.02322532789663543
140,0.013247835068324266
141,0.009412383351552287
142,0.014094301579998591
143,0.009870053479404369
144,0.009727033533426101
145,0.0014931285116423533
146,0.0038883040960017087
147,0.0037003467849663144
148,0.008475334544268054
149,0.005099662018596416
150,0.0011896281342363112
151,0.006482761601164207
152,-0.00441888944884597
153,-0.00826917874422697
154,-0.006642959827761691
155,-0.0037376936374748726
156,-0.0034697434250926
157,-0.006503520201335253
158,-0.006470557447212892
159,-0.022877125685305612
160,-0.025702897919133175
161,-0.0178520393943587
162,-0.011775882660039262
163,0.006650648345067126
164,0.007862558268494468
165,0.015237780541942064
166,0.018296247247953555
167,0.0161629516107796
168,0.019758840076184267
169,0.021652178910609523
170,0.008197432592229766
171,0.010708490504407508
172,0.008536430362380483
173,-0.005736788324434219
174,-0.027362615030069523
175,-0.03166293443450849
176,-0.027394814441293838
177,-0.03158283847849131
178,-0.023095015113387247
179,-0.010714541512718199
180,-0.004694881498715567
181,0.007196672481456619
182,0.008456401155371995
183,0.0091424557293584
184,0.010780001662247792
185,0.009859371358108729
186,0.013800965370338852
187,0.018215619911067668
188,0.021924935309261116
189,0.007180072633916686
190,0.01168354846120513
191,0.011771109287813298
192,0.00797070215720846
193,0.006706181892444395
194,-0.0006943881205546294
195,-0.002060694234087706
196,0.001274001619405666
197,-0.005305178772479045
198,-0.003371692037917954
199,-0.006889680394608737
200,-0.008223043210979844
201,-0.006924206853561163
202,-0.009922942938766667
203,-0.003715090068250977
204,-0.007498049508157889
205,-0.008504545029250219
206,-0.00013783168502296515
207,-0.007736733298855666
208,-0.002948507275764657
209,0.003444202982297872
210,-0.002294827294855707
211,-0.0002606057658411341
212,-0.003385195004643139
213,0.0007913270951803025
214,0.003674329226582026
215,0.0009942539870121305
216,8.970471395144258e-05
217,0.0015150649917305622
218,0.0030401763657509195
219,0.003797090776528905
220,-0.0005723681626060677
221,0.00026837523783085
222,0.0026583526373121745
223,-0.0016147033246971306
224,0.0019377564803625767
225,0.00016310077616671186
226,-0.003194324021813341
227,0.003980318878021473
228,0.0013431715510284822
229,0.0028014564949803075
230,-0.0010634799643054974
231,0.0020011665554527658
232,0.002489931943694448
233,0.000905766602501492
234,-0.0028629270023214845
235,0.0005630578998437538
236,0.008508654417970909
237,0.0012843259039335333
238,-0.0010958691505922723
239,-0.007281374559514959
240,-0.002761028637339685
241,0.0010652051921743507
242,-0.0014775868160030424
243,-0.0018016169649337013
244,-0.00036074927176969404
245,-0.002961712884865339
246,0.0005074096717370205
247,0.0014807778270674483
248,0.005055621228045485
249,0.005185044035947073
250,0.001308643504103828
251,0.0038285491742448526
252,-0.003473018327625592
253,-0.004147475107895182
254,-0.002631205909956691
255,-0.0008123352327629747
256,0.00015862252333660037
257,-0.008353609905333285
258,-0.002216477742420545
259,0.007629480753718491
260,0.00019441974838296447
261,-0.0039293801091931915
262,-0.0022952511746636185
263,0.0003127695173598564
264,0.003442688113293302
265,-0.0048031495086250636
266,0.004035356546697438
267,0.004641056446441962
268,-0.006163322921408131
269,-0.0039703927077290625
270,0.0018487103559114608
271,0.0011295115283101436
272,-0.0059524827507962345
273,2.888271401725248e-06
274,-0.0016799429044627688
275,0.0041660426236977705
276,0.0006791012067358625
277,0.0034051560314776377
278,0.004215113498635443
279,0.002189152793116019
280,0.0031672017058671405
281,0.001108774654270001
282,0.002170182878714842
283,0.00020982841279131546
284,0.0012844065156291575
285,0.0017584430105531887
286,-0.0019509686943959097
287,-0.0022694116467637717
288,-0.005248419524013984
289,-0.0036186189553673188
290,-0.001158690247963277
291,0.002856538196676176
292,0.005195599049043506
293,-0.004153876679410792
294,0.0035878159352685287
295,0.0018755033819143271
296,0.0061217554082674385
297,-0.005122072043720477
298,0.002163928946163775
299,0.0012058718084591007
300,-0.001020721548350356
301,0.0018908962377085876
302,-0.007534777485674453
303,-0.0043070221317631045
304,-0.002444913431870305
305,-0.009062366084581351
306,-0.007803322999808319
307,0.0024408365129570085
308,0.001641007496300674
309,0.007577285481774193
310,0.007872091707106496
311,0.0038038317456245453
312,-0.0038738304800678726
313,-0.002310933233519689
314,0.0026719831151044253
315,0.003608256220270554
316,-0.0018645275374246494
317,-0.0004984376533997015
318,-0.0035818143066663104
319,7.961475415882088e-05
320,0.005183591700033034
321,-0.0004175576306373191
322,-0.00484261336829443
323,-0.0020347186877842857
324,-0.0042001830707408035
325,6.82402344324047e-05
326,0.0037161709099555046
327,0.0006339020635049483
328,0.0004106297782649881
329,0.0033456542645221143
330,0.007520275351621779
331,-0.0011898953541216867
332,-0.001250095696417635
333,0.006204518711223894
334,0.004948412395327808
335,0.001120600012618993
336,-0.0019999907243495284
337,-0.010548425546579325
338,-0.010983852457387835
339,-9.811434274132301e-05
340,0.001642870250295624
341,0.002088083606348526
342,0.002973709098110869
343,-0.0019274162356591722
344,-0.005510804593466288
345,-0.0027792655332666717
346,-0.0016211400336115355
347,0.004085702735051221
348,0.0025518408308180304
349,-0.0024205436888534784
350,0.002699674249893695
351,0.0015294710406667435
352,-1.9239945737114378e-05
353,0.0057294380846414006
354,0.0027479690688645194
355,-0.004773078875503438
356,-0.004444684843962982
357,0.00048259715670898387
358,0.006105051069241585
359,-0.00012617689005114258
360,-0.003098245734604488
361,-0.0019714684049527073
362,0.008909644840619256
363,0.0008279607404700958
364,-0.00048051528146668236
365,0.004778533523176388
366,0.0054618021706928305
367,-0.0039713728956114625
368,-0.0035417653873895446
369,-0.0027059498132465127
370,-0.003230650401995704
371,-0.0016020215255529756
372,-0.00726398354674873
373,-0.0001624209991828631
374,-0.0013723089382827302
375,-0.004031532710418249
376,0.0023183023614628626
377,0.0036850897857705067
378,0.005463368094623797
379,0.0065758893357746534
380,-0.003542603064425079
381,0.0007617713636253222
382,0.0017093449040603047
383,-0.0005187504429968815
384,-0.0028440036657274197
385,-0.0030463991081654106
386,-0.004434927946149421
387,0.001033128367967962
388,-0.0024496415146528887
389,-0.0015381030189418827
390,-0.0006453166695471642
391,-0.004698071637971897
392,-0.001164767054533505
393,-0.0050046640028438075
394,0.004009620208256617
395,0.009232515801246512
396,0.0005092351991455562
397,0.006206699529701064
398,0.0010375695950977024
399,0.005885921651809272
400,0.009911160255296945
401,-0.005511656587547547
402,-0.004668443128750949
403,0.0018439606455473954
404,-0.0005285932542578534
405,-0.002026612541039899
406,-0.0027141118465872187
407,0.0031979382479998316
408,-0.0016312158224548057
409,-0.0017508663115004602
410,-0.004979903025431847
411,0.0008237352439290566
412,0.0008901522238413291
413,-0.003105881470969518
414,0.006418877948653279
415,-0.005320649505346413
416,0.006239778574728242
417,-0.0014253596335496443
418,0.00031096396807912645
419,-0.0012691067214459948
420,-0.0005586658438211257
421,-0.0009323990597004429
422,-0.001039881459668138
423,-0.0005057153652645221
424,-0.001236750254799193
425,-6.108438176815299e-05
426,0.003244687944102918
427,-0.00016823252639347995
428,-0.004243592888894318
429,0.0050283474268073445
430,-0.003398962000610575
431,0.0001484988024024643
432,6.591335656616886e-05
433,-0.0047039232481148495
434,-0.004429323983688605
435,-0.0011192032616111937
436,-0.0013160341095424938
437,0.0033345651415827397
438,-0.004129889641796898
439,0.003439560429011685
440,0.006672286773446114
441,0.004440068840838373
442,0.0018514174181916993
443,-0.004601425842016739
444,0.0045295171002656676
445,0.00037864094777091684
446,-0.004164815259243879
447,-0.0009464378845612173
448,0.00595990896496895
449,0.008981442090728587
450,0.008814000812059524
451,-0.0020513966272665647
452,-0.0045368417687032
453,0.0023749981100535675
454,-0.004501966825237027
455,-0.00058828656799858
456,-0.006176327976565702
457,-0.008700583662686473
458,-0.0007119400574272673
459,-0.004875882659064248
460,-0.0067888512936445464
461,-0.0035406418073096746
462,0.005301210848249128
463,0.0038827147684598225
464,0.0055612098525224685
465,0.0023430386649617215
466,0.004779471979799382
467,0.0033026895403951914
468,-0.005777464835831448
469,-0.002673735771431509
470,-0.005082038260351083
471,0.0018835606134650976
472,0.0049102948127632395
473,-0.0014035333852233673
474,0.0003446820588355031
475,0.006497855631603784
476,0.0017245297707431106
477,7.91032694646629e-06
478,-0.004398125461137157
479,-0.005054452427468524
480,-0.003878928810497761
481,-0.004249257447041086
482,0.006419414404511941
483,0.00513125383548195
484,0.0007365887984813607
485,-0.0020300341536232565
486,0.0005591804310775134
487,-0.0007134535342602031
488,0.002575076474136054
489,0.002098808432010428
490,-0.001724179840052598
491,-0.0032977390908140863
492,0.005813717679063173
493,-0.0016034722523258112
494,-0.005145889982482239
495,0.0049514787624233
496,-0.008179480337025058
497,0.005733272770948514
498,-0.0018220366460682102
499,-0.0019188635832805348
500,0.002301887693861363
501,0.0009618431784843388
502,-0.0006358951509398449
503,8.065464317427197e-05
504,0.0004359710133151444
505,-0.0027991200146289964
506,0.00582082129702813
507,6.741187427978731e-05
508,0.0005793451453236301
509,-0.0006351629125166663
510,-0.0021026870764084497
511,-0.0029669988533326253
512,0.0017091067049447226
513,0.0005613669471677234
514,0.005301914939160106
515,-0.0005726791636075333
516,0.0015814202798536065
517,0.0056996727752646
518,-0.010477096355914126
519,-0.00467079442053722
520,-0.0004305883227004332
521,-0.005096721348111933
522,-0.0017484123832154086
523,-0.0018579741516074662
524,0.007027613754371991
525,-0.000532569849493866
526,-0.0054955019755461715
527,-0.0029816148876294687
528,0.003275725232242564
529,0.007334868493902224
530,-0.0004412902669633928
531,0.007182701815252034
532,-0.0024708186985524863
533,0.006143858892010076
534,0.00794792614436425
535,-0.0034112974371578383
536,-0.007980334011102791
537,-0.008743366112946387
538,0.001995488588687708
539,0.002975652417117454
540,0.0035966162613414437
541,0.0057219296797387425
542,0.0009679969905825175
543,-0.0052700127453379295
544,-0.004297060623293516
545,-0.0004423982778366149
546,0.002511006261634129
547,-0.0008186123548313325
548,0.005407673267233068
549,-0.003661356598796907
550,0.0015172570028796888
551,0.00011818704760815923
552,-0.00569517110211321
553,-0.001852802030481087
554,-0.006002480903373575
555,-0.002045442290419872
556,-0.0049205832485078906
557,0.00546476256204642
558,0.002777757572779727
559,0.0034249956779961385
560,0.001763077403672559
561,-0.0025909112359580825
562,-0.0006671056959123289
563,0.004165725744150034
564,0.004537321586075553
565,0.0017807074436031953
566,0.0018578008210769544
567,0.00020865285901455928
568,-0.004337937596582449
569,-0.00021157391164751405
570,0.006783703236769847
571,-0.003803954907293524
572,-0.006648028006723678
573,0.0005330059826888917
574,-0.0012313982087842406
575,4.6301498041913594e-05
576,-0.0027651638667709182
577,0.0022499345811214343
578,-0.0031506860001142747
579,-0.0036251087648514558
580,0.004719353429974772
581,0.0024486412890228505
582,0.003038493482280368
583,0.0004352056169708192
584,-0.0026443406888409585
585,-0.0025076458324743544
586,0.004399800117909924
587,-0.001935948934458794
588,0.002758469029796113
589,-0.0013821507596288134
590,0.0014839859165595264
591,-0.0031097705016905047
592,0.0030263187290362186
593,-0.0013467685291681693
594,-0.0058785582294967114
595,-0.001515867722230068
596,0.0020615068947394833
597,0.0028827059519995583
598,0.005228937695541991
599,0.004291044401926273
600,-0.003610370717393864
601,0.007177179837499982
602,-0.005926003271738915
603,-0.0013544406241739419
604,-0.003430363302729741
605,0.001289753345031272
606,-0.0018550044872915322
607,-0.004486535033602791
608,0.004359478031892497
609,0.0017991019046563212
610,-0.0004933252829696436
611,-0.0019310657172857829
612,-0.004745426278313182
613,-0.0007257538962969629
614,0.005317705445865408
615,-0.0008071417978796173
616,-0.0017258450276294666
617,-0.00018377533940499083
618,0.0019032699150181992
619,-8.629309815316732e-05
620,-0.0032889310058720565
621,-0.0017246101951703015
622,0.0062878095405405465
623,-0.0007246585942359569
624,-0.0012489441655604717
625,0.0027491085527469837
626,-0.0005709787101266135
627,0.004049364506480892
628,0.001819947656201167
629,0.0014386778722353423
630,0.0004027296042842382
631,-0.00023891254875785597
632,0.0018074070681748135
633,-0.003690957793289762
634,-0.0021413580651071804
635,-0.004591320967203519
636,-0.001321881221143015
637,0.0002851243414648836
638,0.0012279912525451266
639,-0.001980340718440247
640,-0.0020237686724099754
641,-8.13893646068476e-05
642,-0.0011047125526036494
643,0.007809600138563016
644,0.0009749713010830229
645,0.0012167086038312996
646,-0.004646126059471886
647,-0.0040141341839337406
648,0.002933658918003264
649,-0.001950538473016671
650,-0.002719735232147892
651,-0.004483815738850828
652,-0.002193156156973502
653,-0.0022766912122920285
654,0.007815748403036452
655,0.012160963553152125
656,-0.001073920525986094
657,0.0066134026732605
658,-0.0008429971622358166
659,0.0025516370626887455
660,0.0038899317606818137
661,-0.0030139975886003204
662,-0.0009577905418425431
663,-0.0008665711906500591
664,0.0009661445779140382
665,-0.004730215243371661
666,-0.004785574702835046
667,-0.005540277856391627
668,-0.004288107244658716
669,-0.00032571593505742284
670,0.003316983948268463
671,0.001780081271954656
672,0.0019278715788638903
673,-0.0019915844719461335
674,0.00576174588208261
675,-0.0017851361513468488
676,-0.0023319306434641356
677,-0.0007747137178352945
678,0.0007226804621989699
679,-0.00026239371427643453
680,-0.00021589547177900802
681,0.00021338439683981497
682,-0.005222700208918757
683,0.0033676313382310936
684,-0.0025810590567435215
685,-0.0022468090450152127
686,0.004276898387467193
687,0.0061832043153278735
688,0.0017315451357230015
689,-0.004124507997860521
690,-0.0012993252723143157
691,0.0007685418781739287
692,-0.0006180587992339701
693,0.0008873001251501911
694,-0.006908147028239078
695,0.001620910035974402
696,0.004754913469196516
697,0.0031513890319099774
698,0.0028532160775289143
699,0.003256772567904371
700,0.0012152999653338315
701,-0.004198083313942987
702,0.005197239642872368
703,0.00109132196568466
704,0.0011458810483177947
705,-0.0033718822218390954
706,-0.0010068685496603092
707,-0.00508995906501853
708,-0.004109514236818655
709,-0.0002613332272814557
710,-0.0031134449675450865
711,-0.004407280860534619
712,-0.0038675717045405685
713,0.0015445654724275098
714,-0.001545950745239724
715,0.006752789629937459
716,-0.0005219405507136121
717,-0.00961211174936568
718,-0.004916581276830758
719,0.005154823943725179
720,0.004454178460066323
721,0.004558488474342466
722,0.01080477700387852
723,0.005041424784662841
724,0.0006145119692843957
725,0.00039269736127027846
726,-0.004421886817194805
727,-0.0015963062064973301
728,-0.005994965085977988
729,0.0003008459743119498
730,0.005524187308914614
731,0.0002316432288689465
732,0.0035779576936639506
733,0.002203421614638452
734,0.0038981954865859644
735,5.155750366357334e-05
736,-0.0057882785070042814
737,-0.0027603103890062233
738,0.003979339156397945
739,0.008753137679874286
740,-0.0022994650711049506
741,-0.009595486961140999
742,0.0006485502874543966
743,-0.001878712845168838
744,-0.003121454597473169
745,0.0023607684519071515
746,0.003951198498216895
747,0.0031178218649844693
748,0.0017004480109940692
749,-0.004245298561032321
750,-0.004039183401403663
751,-0.004807181153502221
752,-0.006227713128417251
753,-0.010722735547374147
754,-0.00757583031163824
755,-0.006514680434694069
756,0.00038987888511658915
757,0.0037115267179900907
758,-0.002553163572018057
759,0.00028900808014275213
760,0.004164820097223713
761,-0.001130088089074938
762,0.0032327526082291495
763,0.0037090382253564917
764,0.009231195478952943
765,0.012222982782320506
766,0.0031379793033822646
767,0.008153820418340568
768,0.003904324215876411
769,0.006698304987177264
770,0.0007971408495527823
771,-0.004426510023205108
772,0.0017472072617933255
773,-0.0030131116529886794
774,-0.005285480339882557
775,0.0007389414328810608
776,-0.0018119918302632338
777,0.0020004762358783595
778,-0.007105560852570324
779,0.0025401808432331738
780,5.018500800979195e-05
781,-0.0029874557947975567
782,-0.0006851401910466168
783,-0.005554020171359702
784,0.001582760960548121
785,0.00037812261748886977
786,0.004162241982386442
787,-0.006388214621360686
788,-0.0060373808557829395
789,0.003351557755715692
790,-0.006333660232020229
791,-0.0033455272850709764
792,-0.00017713769758622745
793,0.0004265083928983648
794,-0.001520440245589923
795,0.0002956927971286922
796,0.0029569510453490277
797,0.004448315881408321
798,0.009010792517533265
799,-0.006299775629903434
800,-0.0020136904056021797
801,-0.0007562412326986394
802,-0.00276722888208821
803,-0.00424266835124115
804,0.0002719933233452862
805,0.0016957746225247858
806,-0.0005838299043956149
807,-0.0018990250471250126
808,0.006524845762312334
809,0.0053498861314604795
810,0.003958597588128563
811,0.0037113557255849163
812,0.0018805074878565885
813,0.0023264673421774847
814,-0.006440776298570259
815,-0.0002537883426915622
816,0.008571634847469218
817,0.0038686024610570767
818,-0.004218418050229972
819,-0.0008437559192808232
820,-0.0008917880300014988
821,0.001026281119567477
822,-0.0040965078918319174
823,-0.004880102632795723
824,-0.00013641689172299437
825,0.0016357782017449047
826,0.0012132777919292258
827,-0.002490597885893126
828,0.00181129934824527
829,-0.002148979851304738
830,-0.002856629871822825
831,-0.0035325255935860986
832,-0.002315186217356222
833,-0.0034315415799537428
834,-0.005952393999383185
835,0.002516782033427695
836,0.002037650762076017
837,0.0025766751911594516
838,-0.0009926294127337934
839,0.002673145349737763
840,-0.002210423842291847
841,0.004922764880797887
842,-0.00027810886655694166
843,-0.0015258723972350289
844,0.0014698131142262608
845,0.006706115409579775
846,0.008248175715583676
847,0.004162787644324143
848,0.003269557222321657
849,-0.0026613125112309264
850,-0.006281798464698064
851,-0.005195766497264865
852,-0.0029210556850799343
853,-0.0036202005721039203
854,0.006117812030079209
855,-0.003189755514175706
856,-0.003826956427612242
857,-0.0017257192367987305
858,-0.0012604114252120647
859,0.0015342999507318954
860,0.00012644975671985588
861,-0.0016105309278081782
862,-0.001001301818322609
863,-0.00038427843000939793
864,0.005552376336507979
865,-0.00020895729004959292
866,0.0034710782097679242
867,-0.00228299542937393
868,0.0020795796100471393
869,0.0039188124770456155
870,-0.0018666142129839369
871,-0.004556565710779234
872,-0.0006316167417259582
873,0.003385860857278272
874,-0.0005866285393004017
875,0.00462256179281686
876,0.001369032829326067
877,-0.0025187729343508873
878,0.004684051829460083
879,-0.0038627149347278383
880,-0.003494265388629828
881,0.0035341518361004416
882,-0.005539280691635798
883,0.0025132881604242215
884,-0.0013151948780422565
885,-0.000847223565440057
886,0.0011534960206644514
887,0.006405015576405218
888,-0.0009428153887148438
889,-0.002371553767543523
890,-0.003612416130294209
891,-0.008366363472364063
892,-0.0035185226103395164
893,0.0016612885987578145
894,-0.005504889294749408
895,0.0025114326817848153
896,0.0037165472334092214
897,0.004290733074896677
898,0.009931893352305269
899,0.005833391835549457
900,-0.0003127955263847633
901,0.0036351666404838916
902,-0.0033106312818037952
903,-0.00718861555061792
904,0.003387668973104413
905,-0.007690754348328077
906,-0.004739696472539958
907,-0.001495080215710808
908,0.007636844257631289
909,0.0007710293695127185
910,-0.0012171518777655535
911,-0.008910796428027386
912,0.00012409437254898292
913,0.00148581070785247
914,0.0024425336382692276
915,0.0019251768593893971
916,-0.003672384008852991
917,0.0003777411308376437
918,-0.0014171675519424071
919,0.006541347474023304
920,0.0016144250206192156
921,-0.0006218622476128408
922,0.0010507999426864444
923,0.007230638125469299
924,-0.00029342981076020853
925,0.0030764891113067485
926,0.001225945299949207
927,1.413496953437017e-05
928,-0.0028336048442734107
929,-0.003766956685888459
930,-0.0019152158690623668
931,-0.0029799343407646084
932,-0.0011184253174849161
933,-0.004464115964124276
934,-0.00020150887918516693
935,-0.002209171804749891
936,-0.0041014248303531155
937,-0.00011571707638142331
938,0.0015825503561777456
939,0.000790224361809937
940,0.0020842362477058746
941,0.0056843224727832365
942,0.0038588409682770997
943,0.00012103092764250388
944,0.0021640172422202272
945,-0.0049824431180565
946,0.0059376026229956596
947,0.004037717830673535
948,-0.0031465053079231912
949,0.003833481127588692
950,-0.005317153334200107
951,0.000977666551196285
952,-0.003302297094058918
953,-0.0030430174279892784
954,-0.0013992030813810372
955,-0.009166686676411982
956,0.005208868392935561
957,-0.002142058680916577
958,0.0029133800109935708
959,0.0019011756251651035
960,0.005445649897628618
961,0.0055354305242412425
962,-0.008427228418763323
963,-0.001400294520576626
964,-0.0022436306126793863
965,-0.0024958021364386556
966,-0.0030380212285240835
967,5.6570124605954605e-05
968,0.0016526551805550356
969,0.005724513620708671
970,0.001009479532073445
971,0.0009040262842160123
972,-0.0014051477802382653
973,0.0008626020265951658
974,-3.8357421242637274e-05
975,0.0006347870275866703
976,0.0029844345067925864
977,5.334823959969939e-05
978,-0.00046576961730021224
979,0.00213547832829249
980,0.002164577366604581
981,-0.0043657617368483845
982,-0.0008736522969489992
983,0.002267563270736744
984,0.00396810143819489
985,-0.004460449652943343
986,-0.0006077793565984046
987,-0.00233337311556938
988,-0.002891004824720874
989,0.00614670557762472
990,-0.002139822289449417
991,-0.001963876490012056
992,0.0013659300033670198
993,-0.003723428167082589
994,0.0008956898150339742
995,-0.006176699398891967
996,0.003243582724995517
997,0.002579371884076455
998,0.0009587389348152545
999,0.004480813023265145
1000,-0.003039694995512823
1001,-0.001635609593795908
1002,-0.004146885445315117
1003,0.005010679515889693
1004,-8.667247478159716e-05
1005,0.0005247781065043488
1006,-0.009019166213437256
1007,0.005977252708172459
1008,0.005721863054744541
1009,0.006436940460436698
1010,0.0005237876458789887
1011,-0.005783613825655776
1012,0.003337956640858092
1013,-0.004764491789959256
1014,0.0020666400263768415
1015,-0.0037129913748682637
1016,0.0011649142978099585
1017,-0.00045123936989286285
1018,0.0047726742485332705
1019,0.0006494149229519719
1020,-0.003568614428900838
1021,-0.0051753707885444835
1022,-0.0043864727951969116
1023,-0.002371291113536291
1024,0.002724462331888158
1025,-0.00541426112450949
1026,0.0018335894585546717
1027,0.003312725542620897
1028,-0.0017417724438701212
1029,0.003203594864124547
1030,-0.0010403241398096435
1031,0.0006591347487931252
1032,-0.007029381614181115
1033,0.004802584452612769
1034,0.006739945268659845
1035,0.00512208270349318
1036,0.0009668737781008668
1037,0.0001537820999066193
1038,0.007141247364139926
1039,-0.0032045408509405234
1040,-0.006664666852428066
1041,-0.001074630128743509
1042,0.0009332315291554613
1043,0.004137459104822062
1044,-0.0006108342005510308
1045,-0.003014130177809266
1046,-0.003111472712306644
1047,0.00091268065354028
1048,0.00035554192792207947
1049,-0.004324338575009957
1050,-0.006459056770804577
1051,0.0036114382553639867
1052,-0.00016114663769821284
1053,0.00440832220170673
1054,0.005168846194949289
1055,-0.0033401129611376253
1056,-0.0013823840783617498
1057,0.000501335724653381
1058,0.0022118201619969295
1059,-0.00032934079011450075
1060,0.0014726889533890515
1061,0.001411771620565815
1062,-0.0015801102774124151
1063,-0.0023742200621883628
1064,0.0020142239437641683
1065,-0.0042595116408023735
1066,-0.002948773042125454
1067,-0.001758325727823213
1068,0.006416217533571881
1069,-0.0009713034374867948
1070,0.000978021509481973
1071,0.006660896272245844
1072,-0.000512263002285053
1073,-0.0019250244070113881
1074,-0.0007527144594646155
1075,0.0008502285420127669
1076,0.0033818455437588596
1077,-0.0029598811126618713
1078,-0.006265457400576827
1079,-0.003520718438724377
1080,-0.005305982281473172
1081,-0.002792188866334984
1082,0.0031268380258580135
1083,1.5458740510275806e-05
1084,0.002335195868603831
1085,0.0039445287776017565
1086,0.0034976075077335616
1087,0.005201864470074544
1088,-0.0014112164730653975
1089,0.0008300882885426703
1090,-0.0012590729525237335
1091,0.009776728042469006
1092,-0.0021390116862324195
1093,0.0011352884743737164
1094,-0.0019972534390533016
1095,-0.005908071802780209
1096,-0.0010236804323563112
1097,-0.004169899822269328
1098,0.001977216168018287
1099,0.001480865276466817
1100,-0.004030056258207539
1101,-0.0067925418164516875
1102,-0.0008769322538120499
1103,-0.0007623013399783145
1104,0.0008069536427949432
1105,0.0001770192675149638
1106,0.0039856962116060456
1107,0.0026787740696050336
1108,0.007017796932521779
1109,0.005217751465362819
1110,-0.0021897860009367524
1111,-0.007432610870565728
1112,-0.0009032987358727936
1113,-0.0034405824125926417
1114,-0.0024046718228467965
1115,0.0040154905055203895
1116,0.010184282000845514
1117,0.00584964736380293
1118,-0.001741474627171257
1119,-0.0026819204910673326
1120,-0.00709104279851755
1121,-0.005913479671589565
1122,-0.00814808115302254
1123,0.0008860349302359967
1124,0.0037541314208262705
1125,0.005742295979961833
1126,-0.0026207011421945647
1127,-0.0012150330684406255
1128,0.004314875934250062
1129,-0.002700167438783924
1130,-0.003851567017154091
1131,-0.0021172206099278282
1132,-0.00012480199830479898
1133,0.005395193715606381
1134,0.0013687238235414005
1135,0.003744736287092187
1136,0.0064930074252238755
1137,0.001666401504749792
1138,0.003431705429823479
1139,0.00015951157784050915
1140,-0.0010519324613802207
1141,-0.0028233931081504474
1142,0.001477909556789737
1143,0.004706852076223972
1144,-0.0029948491429978297
1145,0.0009064113932433521
1146,-0.00260352219681979
1147,-0.010418850981947163
1148,-0.000983515540187746
1149,-0.0009284835190911268
1150,0.0016990603272596556
1151,-0.005312050734640132
1152,0.0009810869866333609
1153,0.0070277089352918315
1154,-0.0028976930148796078
1155,-0.001176769977658281
1156,0.0006579506852847743
1157,-0.005233479531504624
1158,0.0005707971072379525
1159,0.0027982351430837216
1160,-0.0023664325551653095
1161,0.006742908932763181
1162,-0.0016872031474615499
1163,-0.0036261847814229023
1164,0.002032732896314447
1165,0.0006080336615769729
1166,0.003322421096999732
1167,-0.004336915850417003
1168,-0.0028450010453519997
1169,0.0013529044800049978
1170,0.0010288984211044173
1171,0.003845888836706342
1172,-0.0020091342239332045
1173,0.004770623844385202
1174,0.0033015573806019095
1175,-0.0006462566104600987
1176,-0.0033763873686385604
1177,-0.0005607596256978764
1178,-0.003846162946408419
1179,-0.0002807497573252011
1180,0.007916002000741548
1181,-0.0034984611643139405
1182,-0.0052693201463537825
1183,0.005463074067134087
1184,0.0018444364717801597
1185,-0.0029043335212620546
1186,-0.001078555886082815
1187,-0.006423873727960786
1188,0.0027633918435496594
1189,0.0016452783966333547
1190,-0.0007674049585087162
1191,0.00566097295359235
1192,0.008339885726668968
1193,-0.001150732312364889
1194,-0.004139881248891441
1195,-0.005873221939212824
1196,-0.004732300575374968
1197,-0.00018411770245962272
1198,0.004464585833367553
1199,-0.004734832033070407
1200,-0.002511055985191213
1201,0.0035509475103875938
1202,-0.0016439855072788072
1203,0.0072751882321704575
1204,-0.0037268740275757956
1205,-0.0007708232455816422
1206,0.0009614574747921004
1207,-0.0004098410667050488
1208,0.003225176870150401
1209,0.0017968198969439183
1210,0.0035809380430699674
1211,2.4618473612540367e-05
1212,-0.003635316087747924
1213,-0.004890128698732263
1214,-0.0060871279463589984
1215,0.0007754475624436527
1216,0.002573035953467577
1217,0.0007179597596555093
1218,0.00432200583606822
1219,0.000325013686326139
1220,1.5637731307192523e-05
1221,0.0003402071148553929
1222,0.00012432166380347935
1223,0.0002821277355381773
1224,-0.004341138209287431
1225,-0.00378110868082834
1226,0.0015062920898492142
1227,0.0058419524498604155
1228,0.0034397037008293465
1229,0.00032672114923120235
1230,0.0063171811269911405
1231,0.0014007770580229829
1232,-0.002724534431144618
1233,-0.006895229030280111
1234,-0.001650853784248645
1235,0.0013775610570163702
1236,-0.0015106777361042845
1237,0.0030260234217995285
1238,-0.0015489904518990027
1239,-0.0034214300260266475
1240,-0.003076861782084786
1241,0.003216827102041478
1242,-0.0015518447279570281
1243,-0.005284088742356089
1244,0.004837736156905761
1245,0.0021570322230319
1246,0.0021979379791751703
1247,0.0032942155244768193
1248,-0.0020451436860199007
1249,-0.0031707599012449454
1250,-0.0010821484879675446
1251,0.003168596232617893
1252,-0.0009535906971873988
1253,-0.0009754386675510911
1254,0.001802142630764005
1255,0.00134440060442482
1256,0.00036445690661859615
1257,-0.004506087837726811
1258,-0.006624171383085737
1259,0.0009108260426637406
1260,0.002115910592883529
1261,0.0007220603728031391
1262,0.003979638743585022
1263,0.004759805226268202
1264,-0.0007164574541698998
1265,-0.0028380543554750335
1266,-0.002350407958787805
1267,-0.0014425269742370603
1268,0.0018226741821816585
1269,-0.003045100385391266
1270,0.003917221982302101
1271,0.0009515035035297503
1272,0.001761619244570977
1273,-0.00388605195560752
1274,0.0007980663602242238
1275,0.008001673692542097
1276,-0.0032751080122321603
1277,0.0038603762217103597
1278,-0.002613016848585093
1279,-0.003430756626030965
1280,0.005373138242482294
1281,-0.0005971225019613391
1282,-0.0031716552487573045
1283,-0.0008610400843169965
1284,-0.0024661066655499407
1285,-0.005337363458619468
1286,-0.0012008891587758815
1287,-0.0020427676036621767
1288,-0.0025887339932731575
1289,0.0026549061360063297
1290,-0.003005357735982086
1291,0.0004983327473053797
1292,-1.5221038935076675e-05
1293,0.001743869512271061
1294,0.0016897114633711956
1295,-8.322462174294686e-05
1296,0.0004631667720510213
1297,0.0015936303298729193
1298,0.0021934143557410073
1299,0.004402610280049981
1300,0.0002953664550831535
1301,0.007421829604506292
1302,0.007856266266655533
1303,0.0020368180706114257
1304,0.0034828747244301083
1305,-0.0037088088744129145
1306,-0.0036826456117555854
1307,-0.003624901511667393
1308,0.0022090581496356006
1309,0.0006222154994206834
1310,0.0018099613911797784
1311,-0.006952225076060463
1312,-0.0006400507502283929
1313,-0.005207054117214335
1314,-0.001983436783274075
1315,-0.0011877481154751856
1316,-0.005022639319415481
1317,-0.0030692438460690136
1318,-0.005504371154334776
1319,-0.0074319755840453455
1320,-0.0017213156085112234
1321,0.007848051095319414
1322,0.00403329218313714
1323,0.0005197165679314587
1324,-0.0021649455159392025
1325,0.006668499742004376
1326,0.0014406831984670205
1327,-0.0004302670028843731
1328,-0.0009044313927352842
1329,0.0032822275407035084
1330,0.002401113933850285
1331,-0.004587739095530037
1332,-0.002279709906968264
1333,0.00864872740002123
1334,0.008258092935291155
1335,0.001455304397677359
1336,-0.003466914770161103
1337,-0.003938718211798866
1338,0.000709782759490022
1339,0.0026808832799301158
1340,-0.004698133514922986
1341,-0.005315611296190429
1342,0.0009229240848464323
1343,0.007016795339138791
1344,0.002522173967457129
1345,0.00028802656067037843
1346,-0.0013585841928998622
1347,-0.000825561286713225
1348,0.0014373305904709002
1349,-0.0017495307170261017
1350,0.00032528802427249544
1351,-0.002127524632260896
1352,-0.00029522271232247654
1353,-0.0021108538561146603
1354,0.001681975311545448
1355,-0.0020898183086187063
1356,0.004576606110859919
1357,-3.7792928702321676e-06
1358,-0.006390801752112884
1359,-0.0026279368308647086
1360,-0.0038092538148328144
1361,-0.003359280055465586
1362,-0.010528383125414573
1363,-0.00189391569835568
1364,0.004225918083695575
1365,0.0053795568100046005
1366,0.006159176893483376
1367,0.007991885421183773
1368,0.005773260656164365
1369,-0.0013246603193187547
1370,-0.0015543665001691333
1371,-0.0007874482827856296
1372,-0.0026574010048377155
1373,-0.004695458278082317
1374,7.57488329772172e-05
1375,-0.0013356850846054005
1376,0.001491923205219273
1377,0.0073539953336334354
1378,0.005681464258073025
1379,0.005337651663998987
1380,0.0019521943379105285
1381,-0.0012888882737179487
1382,-0.00014811511411635774
1383,-0.004624683524526504
1384,-0.0011175695867834921
1385,-0.0011825689575855943
1386,0.0003681714550995653
1387,-0.0063601104589381865
1388,-0.0031387895558506245
1389,-0.0007742185094248132
1390,0.0019561989892256416
1391,-0.000456613492210654
1392,-0.005021672507750268
1393,-0.0016958457849968536
1394,-0.0029930039228306497
1395,0.0027753558918877253
1396,-0.008486406218821872
1397,0.0033316603550641293
1398,0.006133239202610054
1399,0.0021789500811990273
1400,-0.00095728838311941
1401,0.00184920361689595
1402,0.0025904119455725655
1403,-0.0011160644690620045
1404,-0.0024432318907774662
1405,0.0026105706329125813
1406,0.006583252175387699
1407,-0.0013198375466090557
1408,0.0012565264142354697
1409,0.0016361027967032125
1410,0.00034133445011159773
1411,-0.0040060050709088
1412,-0.0019776946930297867
1413,0.0075583941581662305
1414,0.0006004777020597075
1415,-0.004131872431574392
1416,-0.001969232074543024
1417,-0.002384227770941747
1418,0.0038244839058491024
1419,0.002755175429219627
1420,-0.0012631853779822193
1421,-0.006237870812810196
1422,-0.0006024049728769135
1423,-0.005142884925821895
1424,3.214728409346376e-05
1425,0.005409459503012845
1426,-0.002743212681620045
1427,0.0011304747271720181
1428,0.0010899966426617357
1429,0.005355562907524539
1430,0.0022853588092743276
1431,-0.004999203329027556
1432,-0.0012547222915505508
1433,0.002188249164214248
1434,-0.001108041339898714
1435,0.003106773479717242
1436,0.0011327905496559144
1437,-0.001812110458055195
1438,-0.0021740981019196925
1439,-0.0037773884701098404
1440,-0.0008915902192353411
1441,0.004842443309693154
1442,-0.0030358965539844917
1443,-0.009479168465101696
1444,-0.0043382883170618
1445,0.005804822534498639
1446,0.006235630189568556
1447,0.00038681168759962907
1448,0.004182324909111943
1449,0.0020757143901958333
1450,0.0023127060439316616
1451,-0.00203542648556962
1452,0.0012731810764169769
1453,-0.00605029188168027
1454,0.0010119857029723643
1455,-0.00021766213260764056
1456,0.0003361722191006465
1457,0.0006089366801352771
1458,-0.00021505293720901208
1459,0.0033243459320913393
1460,-0.0008928727590946425
1461,0.0019700134565082805
1462,0.000989857898241184
1463,-0.0037286372389371634
1464,-0.00241168953677882
1465,0.010153445707998138
1466,-0.0029102756629505516
1467,-0.0027061096197051326
1468,-0.0019576506235218505
1469,0.00025893822817575456
1470,0.0008382015207200133
1471,0.0013077061527805396
1472,-0.0003911199841423237
1473,-0.005264027902271378
1474,-0.009323647359450436
1475,-0.0021506965787895125
1476,0.008285402868653445
1477,-0.0015242298876662298
1478,-0.002158536297562791
1479,-0.002330045478440174
1480,0.002451141524218844
1481,-0.00019236793168100202
1482,0.0021976554206954105
1483,0.003332509102955388
1484,-0.000751808822170472
1485,-0.004060672838229976
1486,0.00320981138410297
1487,0.004117647896044298
1488,0.0018031454780784092
1489,0.0031265402055458986
1490,-0.0015836232544707302
1491,0.0024216451709912976
1492,0.0013484829747410707
1493,0.005847573689076447
1494,-0.0026012489210530537
1495,-0.002358682542285471
1496,0.0007759101761040232
1497,0.00022365101576677857
1498,0.001949043639786225
1499,0.003212705247792098
1500,-0.002942969339697987
1501,-0.007105825488968198
1502,-0.0019194159273084078
1503,-0.0022242893326169634
1504,-0.003595412006673275
1505,-0.0015029155321941287
1506,0.00749742579906558
1507,0.0025329777627975418
1508,-0.0022679218508171893
1509,-0.004385947603793181
1510,-0.003959641334079689
1511,-0.008996006737117881
1512,-0.0010250530890712987
1513,0.008468289774558997
1514,-0.005051303382458414
1515,-0.003787192942246609
1516,0.006328322421424445
1517,0.003686831046824199
1518,-0.0006665920711381584
1519,0.005197457169477842
1520,0.004843864204176528
1521,0.0023226035750712384
1522,6.76209379450593e-05
1523,-0.0015635482333150996
1524,0.0002002688011046392
1525,-0.0010748283699241364
1526,-0.0020245858381081807
1527,-0.0027065975776213048
1528,-0.0002595798846313814
1529,-0.0030663115107137755
1530,0.005432083551101438
1531,0.0013202790989772176
1532,0.0002433671706271838
1533,0.003625107451037954
1534,-0.007272607682739792
1535,0.002709512140307938
1536,0.00590813870617545
1537,0.0006748999529225148
1538,0.00012837543021605897
1539,-0.00255668903791644
1540,-0.007102035840764017
1541,0.0014524461700785082
1542,0.003728467484471351
1543,0.004536595043569003
1544,-0.001028100227607862
1545,-0.003641738225831189
1546,-0.00041405356779102183
1547,-0.002787160410385418
1548,1.2084044846110212e-05
1549,0.00022333087182188974
1550,0.004509036971235154
1551,-0.0034257096520793184
1552,0.003959046290573825
1553,-0.002668139041079407
1554,0.0006112537538369165
1555,0.005001366998776223
1556,-0.006645712566317864
1557,-0.007156879980261197
1558,-0.001454123691509949
1559,-0.0030479545779421736
1560,-0.00316097123099236
1561,0.0023415051601883945
1562,-0.0036861004233699826
1563,0.002973039605407443
1564,0.0013131425297455285
1565,0.007272986503794065
1566,0.003212158089371661
1567,-0.0009835238993672456
1568,-0.0002468318397880528
1569,-0.0068598628393230915
1570,0.0011883393216603443
1571,0.005002759786370013
1572,-0.0012883729712811244
1573,0.0014184991493371383
1574,0.0002560997317072461
1575,0.0016778001168812912
1576,-0.0012125320874277288
1577,-0.00274915023358443
1578,0.005588792615357087
1579,0.006191180258557012
1580,0.004943361136744503
1581,0.009156056951434293
1582,-0.001663992908648759
1583,-0.006763889199069809
1584,-0.001558121961124712
1585,-0.0048909338983684145
1586,-0.0036328335599727576
1587,-0.0008694879470973523
1588,-0.0021137424522396607
1589,-0.007867738180356958
1590,0.002051029583192001
1591,0.005456236535108475
1592,0.0004973010292389102
1593,-0.002346735277087385
1594,0.006887874267616315
1595,0.00015581144401818035
1596,-0.004989010871898684
1597,-4.582088400734152e-05
1598,-0.005651106140467407
1599,0.004668871019708083
1600,0.0034653123997409304
1601,-0.0035756568674536705
1602,-0.005502227155933064
1603,-0.006265261076052367
1604,0.0006307482475515821
1605,0.006813017409299149
1606,0.0004527972725089924
1607,0.0009883795887910742
1608,0.0007380046324050506
1609,-0.006543159503200663
1610,-0.005010928894453363
1611,0.0074208790074601185
1612,0.01017038209712242
1613,-0.0016912177837990813
1614,-0.005827694576702109
1615,-0.00015690546703498592
1616,0.0008635203575627758
1617,0.0003244288992733709
1618,0.00868396579445553
1619,-0.002571762787316554
1620,0.00011502578655625019
1621,0.0014378317282819804
1622,-3.49809245843713e-05
1623,-0.0013048754092135437
1624,0.004483257156456999
1625,0.0037974637905231166
1626,0.0006778002242863223
1627,0.003413533243965047
1628,-0.0019254220448529664
1629,-0.006429152223676927
1630,-0.0024394223970009878
1631,-0.003471799387092622
1632,-0.00032625597387353576
1633,0.0007185639022421527
1634,-0.008729252378758283
1635,-0.0008232435468830523
1636,-0.006750847560901956
1637,0.00129149402414294
1638,-0.004490048520938891
1639,0.004821936454020275
1640,0.00866760384829024
1641,0.0025392878681104927
1642,0.004960169129846769
1643,0.005426247188465427
1644,-0.00040671748707469223
1645,0.0015140559235285638
1646,-0.005193455013909906
1647,-0.0071898494396571005
1648,0.0077161135578200065
1649,-0.0025529341306751155
1650,-0.0031058271807999967
1651,0.003098390313674389
1652,-0.00165722420416526
1653,-0.0037332460413958928
1654,0.004471196320599332
1655,-0.0003592633403164489
1656,0.0020581036873075706
1657,-0.003159412807247063
1658,-0.0014913826310848054
1659,-0.0014621717714776404
1660,0.001457185953968364
1661,0.0017241560267475566
1662,-0.0021424402013280348
1663,0.0011402103793761876
1664,-0.0013557359636414993
1665,-0.003738410265395944
1666,-0.00021661266245118736
1667,0.0013680114403222185
1668,0.00013223835455488872
1669,0.001589118651961827
1670,0.0002831648720113718
1671,0.0015666136099180671
1672,-0.0019441027777767333
1673,-0.002844453940833762
1674,6.519782266293378e-05
1675,0.006793299694470607
1676,0.004777137079174076
1677,0.000921009733677737
1678,-0.002481086993105763
1679,0.0005455914665601618
1680,-0.0034665846276651143
1681,-0.001839304528245914
1682,0.008131392666110352
1683,0.007353914593596179
1684,-0.002106987399360361
1685,-0.0047707483069882334
1686,-0.006143472455707733
1687,-0.0006929885069164171
1688,0.0016421244680129427
1689,-0.00824273770749629
1690,-0.0006661899055630804
1691,-0.005841326406788831
1692,0.005359165034612522
1693,0.004990604952188218
1694,-0.002378189212794134
1695,0.00572932724583468
1696,-0.001639583905659119
1697,0.0006854992930568939
1698,-0.0007463572043289145
1699,0.0002822307721395984
1700,0.0020958333888294878
1701,-0.00028949708584910354
1702,0.0009063634167207554
1703,0.0061371841960109665
1704,-0.005124094136437397
1705,-0.011580863134204786
1706,0.0033745970993557667
1707,-0.0009810406958079224
1708,-0.00019045771609890565
1709,0.00030447645367942186
1710,-0.001896793279719318
1711,0.0035248132910279412
1712,0.0018602740121545346
1713,0.0043177238858737275
1714,0.0009388912374181952
1715,0.003907049512668351
1716,0.0045640731155107365
1717,7.336156256388966e-05
1718,0.00326018842257564
1719,-0.009068995474627783
1720,-0.00631690809060056
1721,-0.004599300747537948
1722,-0.0011285449447397955
1723,-0.001730860296888001
1724,-0.0029137813006351824
1725,0.0027338553341117455
1726,-0.0013054160939255394
1727,0.004707220445773881
1728,0.004006104470666129
1729,0.004477725812585533
1730,-0.0010191434146711482
1731,-0.0028870813287364032
1732,0.003923825472798448
1733,-0.002089712968512736
1734,-0.005581302333865639
1735,-0.0027497718644873322
1736,-0.00010588611754892667
1737,-0.0004916003232563939
1738,0.002656118711896754
1739,0.007352237005538953
1740,0.0005371453771122791
1741,-0.0034281770121517086
1742,-0.002107553844380719
1743,-0.0033863915563147728
1744,-0.0005724440109692325
1745,0.0018257320681966671
1746,0.0022663857624284234
1747,-0.0005165393384205744
1748,0.0012562606517650433
1749,0.007519311029304799
1750,-0.0025783032366276442
1751,-0.0007519693278673599
1752,-0.0013307122685813598
1753,-0.0003161228339028082
1754,-0.007210629603001551
1755,0.0006222983624153324
1756,0.004742170555565346
1757,0.002290110221218101
1758,0.0030374368883817997
1759,0.0002553095700252063
1760,-0.0026992623056104025
1761,-0.0027931963991570646
1762,0.008775410152247202
1763,-0.000627515513310934
1764,0.003716010204199473
1765,0.0003466465022632431
1766,-0.002087665014609155
1767,-0.003640620712559649
1768,-0.0067621498654678236
1769,-0.004579255392299685
1770,-0.0032068483501720684
1771,0.002482627372124015
1772,0.0009289105372439609
1773,-0.003652378271110029
1774,0.0012390085577571788
1775,0.0007518144861718666
1776,0.00552240530075557
1777,-0.0020806686247600136
1778,-0.004265542905835396
1779,0.002321932545772348
1780,0.002571450099857448
1781,-0.0007304742451358891
1782,-0.0009835970923352776
1783,0.007289762278976284
1784,-0.0011494243425373227
1785,-0.001159121446326218
1786,0.0017190956459766076
1787,0.001313317738746227
1788,0.000314007134082717
1789,-0.0022139869901846455
1790,-0.0024674412746913945
1791,-0.0010862067751899827
1792,0.0010489600122553268
1793,-0.0005694285594769911
1794,0.0003515712305123316
1795,-0.00015113754638036887
1796,-0.0023285295326744932
1797,0.0004233529038393906
1798,-0.0010107936226220991
1799,-0.001530692324470827
1800,-0.0021234147738517783
1801,0.007088551866405865
1802,0.0037391028200616395
1803,-0.0038704922525719066
1804,0.0001181330511507133
1805,-0.003921239443981643
1806,-0.005889978534086963
1807,0.004288251689917333
1808,0.0029635716481954295
1809,0.0026150797041413886
1810,0.009212762063725129
1811,0.0004663825464383854
1812,-0.0027839759450600868
1813,-3.33169430423233e-05
1814,-0.0016244552673287324
1815,-0.00042885469225819456
1816,0.008123230490067607
1817,0.0005006980977275951
1818,-0.006851795232763507
1819,-0.0027135615732050986
1820,-0.0017752615424746904
1821,-0.004192105010131407
1822,0.001226111738175089
1823,0.0045224733045264075
1824,-0.0028291431897600455
1825,-0.0028984512018019907
1826,-0.0015995380534483171
1827,-0.008295835085709198
1828,-0.004372374644564277
1829,0.002392790889447655
1830,-0.0008833342744963193
1831,0.0030420376762131853
1832,0.007932474004840496
1833,0.0022530650709202057
1834,-0.002438713444379643
1835,0.00461419584141899
1836,0.0038417993331017874
1837,-2.268207497375073e-05
1838,-0.00019800773473740117
1839,0.0023603487609991803
1840,0.006487883573730661
1841,-0.0022598626654979706
1842,-0.00022074731797641894
1843,0.0004823715053541046
1844,-0.004033056101363303
1845,0.00192907346047215
1846,-0.0034548088495391016
1847,-5.520354589793556e-05
1848,-0.004906375198985525
1849,0.0013158326200159408
1850,-0.002725542172803833
1851,-0.002922410258415327
1852,0.0015421936271594865
1853,-0.0027190466186670023
1854,0.0014039574644582626
1855,-0.0022637912152478953
1856,0.001333431002865806
1857,-0.006166698153846805
1858,-0.00044944658783830846
1859,-0.006654670606173254
1860,0.0016897215656859373
1861,0.0035515628166580254
1862,0.002063636798903083
1863,0.008362596485093899
1864,0.010390010223643758
1865,0.0017479331562389906
1866,-0.007383008784917714
1867,-0.0004286312631258133
1868,0.003100448415604643
1869,0.006823981578633784
1870,-0.006683608665150085
1871,-0.001254592875564859
1872,-0.000983024161478314
1873,-0.0031828129899279557
1874,-0.004466136285276237
1875,-0.0031569639938470694
1876,0.0016686534758025128
1877,0.008339215511733205
1878,0.012470267228388275
1879,0.0021918112538997494
1880,-0.0001294658678529072
1881,-0.0054383851418937645
1882,-0.008300310128975794
1883,0.0012843170359392682
1884,-0.0070566061916320505
1885,-0.006729153073167664
1886,0.002410964880042476
1887,-0.003389414621304194
1888,0.006869218849225289
1889,0.0006500965564565919
1890,0.003191953921391929
1891,0.00044320849757655857
1892,-0.0015289057445177457
1893,0.0006924622958711761
1894,0.0029756475558348934
1895,0.002589285807901973
1896,-0.006986206488129223
1897,-0.0004886115548619011
1898,-0.0038398133953728205
1899,0.0004290637244442966
1900,0.000648946502572861
1901,-0.0038320592640337225
1902,-0.001129706193007108
1903,0.001876289952833123
1904,0.004742541361655564
1905,0.004036436089053462
1906,-0.002385582056240494
1907,0.0005398040242050369
1908,-0.0007507529106474242
1909,0.003224603701219953
1910,0.004450499530505426
1911,0.001169580919417778
1912,-0.0004919635509484134
1913,0.0023178219575630717
1914,-0.0009243832385563786
1915,3.059779896710888e-05
1916,0.0012354040686059567
1917,0.0006144721790513567
1918,-0.0004324127968785294
1919,-0.00845950481815163
1920,-0.0093785920917824
1921,-0.001633998177727745
1922,0.0011810220818949928
1923,0.0014584889570302528
1924,0.0017374803567387926
1925,0.0026875762812612865
1926,0.003973265280965411
1927,-0.0020324615752583394
1928,0.0026143309902011257
1929,-0.00413686896064333
1930,-0.0003813452254750535
1931,-0.006467125526717816
1932,0.003269928482657305
1933,0.0001252242379068593
1934,-0.00025807802556991263
1935,0.0038935192774220313
1936,0.004418772895820509
1937,0.007040145276501253
1938,-0.003710500049167769
1939,-0.0009892035812632816
1940,-3.238768315128905e-05
1941,-0.0027976086894173843
1942,-0.0003568804412871999
1943,0.0013403593461555115
1944,-0.0008875633483553056
1945,-0.0034808298629380244
1946,0.0038372171747945707
1947,0.0033424217167948127
1948,-0.008707734628039665
1949,0.0006100511216204276
1950,0.0046403994687314555
1951,0.0004718603933348744
1952,-0.00539139418293095
1953,0.0012028265469421397
1954,0.0017060227716853595
1955,0.005390143444469732
1956,-0.0001337598593644327
1957,0.0042386320723530645
1958,0.003163835451885417
1959,-0.004510389368476234
1960,-0.004274779539121679
1961,-0.0032435285216032284
1962,-0.0027538606992527775
1963,8.951284414232367e-05
1964,0.0005427197521950256
1965,0.001402478942429142
1966,-0.0047624118247957615
1967,-0.004486678750595354
1968,0.0009398818676788177
1969,-0.00244436840718035
1970,-0.0028090743623558415
1971,-0.0026969309072120973
1972,0.0076729634038418424
1973,-0.0007798195440541014
1974,0.0006002002699935522
1975,0.0032331556055818136
1976,0.0013977326860899423
1977,0.0025409658273435956
1978,-0.00056762999323463
1979,-0.00019127669869851115
1980,0.0011725445947305003
1981,0.0007142518491998172
1982,0.004159061773791033
1983,0.0029734619081811936
1984,0.00240374881587334
1985,0.0034609401345679653
1986,0.0007450502516509732
1987,0.0006393280469805269
1988,-0.0026142065613650404
1989,-0.0031405379308239063
1990,-0.0014576002597943352
1991,-0.0002458891894037609
1992,-0.0009729893464612716
1993,-0.005725434793866261
1994,0.0021587905888021328
1995,-0.007816326320031229
1996,-0.0029450708076520678
1997,0.004347884310596954
1998,0.0009184263975208651
1999,0.0005508267713494486
2000,0.0006258374021500569
2001,0.005440082023133728
2002,0.004250727758438237
2003,0.004194901331981083
2004,-0.004089285872881206
2005,-0.003441699886666998
2006,-0.007130381332450825
2007,-0.003953168753957583
2008,0.004094779365603443
2009,-0.0020533611752464147
2010,0.0044996041633656725
2011,0.005819400306143598
2012,0.0008230484696440084
2013,-0.00019631518454103596
2014,-0.001032560544918514
2015,-0.0008768356536230934
2016,0.0025526609557917864
2017,-0.003780660677284749
2018,-0.005025812454120876
2019,0.0005863183452869229
2020,-0.00831620376114998
2021,-0.003364253281334561
2022,0.0010337583313449064
2023,0.003968997259523521
2024,-0.003858796096835364
2025,0.0009299000363443295
2026,0.0016107352840593735
2027,0.0014043694839060827
2028,-0.004661222495237533
2029,2.5741919911075398e-05
2030,0.007109252248451893
2031,0.0030854602771141163
2032,0.002766506668466194
2033,0.006527246086305254
2034,0.002040759797382821
2035,-0.0020869836376590234
2036,0.0019577473275304864
2037,-0.0018010015102098258
2038,0.006108620812013847
2039,0.002340911003067701
2040,0.0020073082012155453
2041,-0.005276482621057264
2042,-0.004544634774443727
2043,-0.010072600488130728
2044,0.00031948152451636257
2045,0.004758397763755622
2046,-0.0007799592789574702
2047,0.00015649109418606338
2048,-0.0033295468997613688
2049,-0.0018139748869229842
2050,0.005114354909300922
2051,0.0013376817073061827
2052,-0.0009816806904493361
2053,0.007539315825912926
2054,-0.004810236205451626
2055,-0.006131396765183074
2056,-0.002698356071579245
2057,-0.005089585104868143
2058,0.003553226895236972
2059,-0.004036093111119013
2060,-0.004958404612958284
2061,0.007276677879517962
2062,-0.00012728527224422498
2063,0.004912330877880794
2064,0.0023387118567007505
2065,0.0027474411122857933
2066,-0.0012926775163959025
2067,0.00592484886436575
2068,0.0011471355645407948
2069,-0.0007051427088746159
2070,-0.004244401239072759
2071,-0.00810859493253391
2072,-0.005243135898932043
2073,0.0011862223569906738
2074,0.003929417326952199
2075,-0.0017974677094848308
2076,0.008379959504685789
2077,0.0008887210526379793
2078,0.0023028443146467965
2079,-0.004510220925634275
2080,-0.0005792071753549424
2081,0.007277566458930222
2082,0.0014962638841789205
2083,-0.006456263322164177
2084,-0.001248679613602196
2085,0.0015061183150860465
2086,-0.0007426570172739469
2087,0.007389376023846116
2088,0.003289018311492028
2089,-0.009605174898012513
2090,-0.0008030796636313391
2091,-0.00047948905698172103
2092,0.0033864264327577278
2093,0.0014010148397787924
2094,-0.006800223661861666
2095,0.0006970084088863092
2096,-0.0018215932595455082
2097,1.919280305314776e-05
2098,0.0031808231606590453
2099,-0.005273612356387026
2100,-0.003380973904591914
2101,0.00042792745218028436
2102,-0.0018416203390859073
2103,0.0011653821778955988
2104,-0.002965947523866405
2105,-0.0026682866388355927
2106,-0.00012963036386378322
2107,0.0028835326133595084
2108,0.001188964137494258
2109,0.007608741103742664
2110,0.0034973976665761703
2111,0.001706461575896415
2112,0.0021245422287777573
2113,0.0028960536105229074
2114,0.0008132154661758366
2115,-0.0016836178388467196
2116,-0.002004929830710456
2117,-0.003606129700536284
2118,0.003907968001424882
2119,-0.0023529479595086715
2120,-0.0073726047366382795
2121,-0.004823785614031441
2122,0.004537003553914879
2123,0.0030394742561597275
2124,0.004626740930942723
2125,-0.0004996748170456762
2126,-0.004981996788179363
2127,0.005420577497069767
2128,-0.0005559705278660749
2129,0.0026457638769729827
2130,0.0016650680136913055
2131,0.0004125375400445882
2132,0.00016923615682056664
2133,-0.0009642557801950447
2134,-0.0006754044428040652
2135,-0.0016777987695348528
2136,-0.00327636873025482
2137,-0.001644167224463101
2138,-0.0017333342687245804
2139,0.000778596307992166
2140,0.005903676540493566
2141,-0.005775620307750218
2142,-0.001985735682777122
2143,0.0014662745262909727
2144,-0.0015681814780325347
2145,-0.0018802777372140655
2146,-0.0007741686184938434
2147,-0.0008822573194222031
2148,0.0020899191709831937
2149,-0.00036472015160134846
2150,-0.0057516703014139905
2151,0.0008956795422728255
2152,0.004964562548941658
2153,0.0007355395616898738
2154,0.0028047917743987457
2155,0.0029058889477349605
2156,0.0010122240171903914
2157,-0.000925189696219084
2158,-0.011044308007443744
2159,-0.003542297939361486
2160,0.005727007042052517
2161,0.010536543827205036
2162,0.0006788758737477224
2163,-0.004287008099569163
2164,0.005939092650667893
2165,0.0019519732191747557
2166,0.00024774064581661696
2167,-0.0018737627267580367
2168,-0.00021467847121446615
2169,-0.0035302175902084372
2170,-0.0002775407913176847
2171,0.0029835155961294452
2172,-0.007643346971313256
2173,-0.00026568155862776235
2174,0.0015081323879024972
2175,0.0020903843885823475
2176,0.003348902708491851
2177,0.002538145536412258
2178,0.0012042744281747057
2179,-0.0068136464246229085
2180,0.00292321883350548
2181,0.0028550222444516165
2182,0.0001296555671234179
2183,-0.004099913744941927
2184,-0.0031598364041495646
2185,0.004672524657043667
2186,0.0015841220617324094
2187,-0.005760659638998114
2188,-0.009123385241407777
2189,-0.006566941942676215
2190,0.0011645340689227825
2191,0.0006358641733933256
2192,0.005896662266416062
2193,-0.0005544414280500651
2194,-0.0037448306617438275
2195,0.0046212010081680115
2196,0.0008007802601239684
2197,0.0087021205949704
2198,0.002358742494501475
2199,0.00235717327993196
2200,0.002908217156082306
2201,-0.0037241284768721634
2202,-0.0014455486406910164
2203,0.0008822357687606145
2204,-0.0037945366486821664
2205,0.007753125715628446
2206,-0.0029425284296402798
2207,-0.003800327541843074
2208,0.0010295520686874155
2209,-0.0003636613486227482
2210,0.00037880197361082196
2211,-0.0010396114755571867
2212,-0.004421122882327947
2213,-0.0030997376812581506
2214,0.003360579426245106
2215,0.00024534095105673004
2216,-0.002424289101799622
2217,-0.004461434484832728
2218,0.0025816988387191275
2219,0.0026467721681711475
2220,-0.00020469613196717404
2221,-0.0008065126070193815
2222,0.0033719088597783074
2223,0.004026440072857088
2224,0.0019169565113855407
2225,-0.0011442589189214428
2226,0.0034224848532672346
2227,-0.0016912815350324916
2228,-0.00318571621329242
2229,0.003200334283168461
2230,-0.001962793288904663
2231,-0.006316986553240423
2232,0.004293929397352332
2233,0.0028998025447824673
2234,0.0013815468815596386
2235,-0.0043212344174823
2236,-0.002097026956209316
2237,-0.00015599673146792208
2238,-0.001548874375181952
2239,-0.002483835693294827
2240,0.0014552290725241435
2241,-0.0033221391373571673
2242,-0.0015903529599221138
2243,0.0018406413205456322
2244,-0.0009040173921131857
2245,-0.004594281094219705
2246,-0.0019242378172706683
2247,0.004872504904839653
2248,0.004075326111540089
2249,0.00407738506180878
2250,-0.0004910389768373498
2251,0.0012615874804644527
2252,-0.00032115052880954745
2253,0.008806890927426207
2254,-0.0033712441501847525
2255,0.00230788508922751
2256,-0.0018900589433888566
2257,0.005242820785916673
2258,0.0008920231560727316
2259,-0.003790786487207612
2260,0.0004359448470045383
2261,0.0032222801423721563
2262,-0.002828761822691154
2263,-0.009734060390581703
2264,0.006184454912182996
2265,-0.006582437046236815
2266,0.0006687695361093215
2267,-0.0014581153048841208
2268,-0.004699183278471551
2269,-0.002567530407355325
2270,0.0004806739884207229
2271,-0.007258256332805324
2272,0.001570094669543446
2273,0.007710579644689545
2274,0.000824490730251112
2275,0.007371728008732585
2276,-0.002201227637325987
2277,0.004059543391503084
2278,0.005672466358782608
2279,0.0031063838858568825
2280,-0.002925551227302636
2281,-0.0020687850535712916
2282,-0.004210255460293166
2283,-0.00423885872138267
2284,-0.0037856963965154644
2285,-0.008956784571935349
2286,0.004786213615131599
2287,0.003240345978715758
2288,0.007580321725727433
2289,-0.0006534572045438069
2290,-0.0033309533883776454
2291,0.0029304084723431757
2292,-0.0017744514595959444
2293,0.00652422874649194
2294,0.000988905733178863
2295,-0.006607239846129836
2296,0.0009630129769745456
2297,-0.0007884492158154871
2298,0.00046746990629210373
2299,0.004514535623554873
2300,-0.0004673869073942311
2301,0.001866738489732199
2302,-0.003175966584781375
2303,-0.004084316273262391
2304,0.005501633875237505
2305,-0.00043203890280278136
2306,-0.009433176730168896
2307,0.000509193270763807
2308,0.0005337772898665501
2309,-0.0018780900285593673
2310,0.0012778813568553437
2311,0.001766703304247141
2312,0.0035330294849781133
2313,-0.0014734025514066239
2314,0.0021036710361864927
2315,0.003924003322718734
2316,0.00047436337688809387
2317,0.003640416525665131
2318,-0.002991178137615994
2319,-0.0037403495006863947
2320,0.003034160557020169
2321,-0.002917155410446905
2322,0.003204201625007427
2323,-0.0023029361242069253
2324,-0.004132541107959482
2325,-0.0010137345944070363
2326,-0.004928354993895639
2327,-0.006532992539412913
2328,0.0007905199559473334
2329,0.003094112379564305
2330,0.0007540303341791298
2331,0.007638913293730468
2332,0.0023404686507067507
2333,-0.0004930277458358827
2334,-0.0035219478297699013
2335,0.0028954742107176763
2336,0.0006495159574727571
2337,0.0038170020933202195
2338,0.002369662509127436
2339,0.001000381095966692
2340,-0.00391314584922501
2341,-0.004725344993215402
2342,0.003198214132766086
2343,-0.0006840780407205184
2344,0.003704202517563375
2345,-0.0011545469123874705
2346,-0.003464135084955346
2347,-0.0007091739164788741
2348,0.0002723328993028641
2349,-0.000639451336028489
2350,-0.002422416291602081
2351,-0.000224909400835192
2352,-0.003296445052265928
2353,-0.004185480992558978
2354,0.001976978884277024
2355,0.0033784366873872446
2356,0.003864116071320074
2357,0.004115376894786037
2358,-0.0005555003857749645
2359,-0.00047878267290488163
2360,-0.0001180506188219587
2361,-0.002746148331266447
2362,0.0026476006580000537
2363,0.003035935236149411
2364,-0.0037085490968676253
2365,0.001347182686799694
2366,0.0005340327220906271
2367,-0.0023488645227453288
2368,0.0006168799521870053
2369,-0.001644624257708384
2370,-0.0016375302962649552
2371,-0.00305831425166965
2372,0.002347030728789192
2373,0.0010088017680693843
2374,0.0014533763984343386
2375,-0.001594733956812297
2376,-0.0012369750281494112
2377,-0.002270828640930469
2378,0.00011873714027652894
2379,-0.002069187567054414
2380,0.0054699434439681345
2381,0.009303310596236517
2382,-0.0007575137125794048
2383,0.006960356350566255
2384,-0.0041858149075385195
2385,-0.0042342751430053055
2386,-0.004515014442199457
2387,-0.0067031196790728505
2388,0.003343804174676033
2389,0.0016630219372915332
2390,0.00836221607439943
2391,-0.0019381923187196878
2392,0.00048380713699978494
2393,0.0014744343392729536
2394,-0.008584358081853646
2395,0.003819877096195176
2396,-0.0008601554114449732
2397,0.006092898693016903
2398,-0.004230070310358166
2399,-0.00041759607218194716
2400,-0.004862719177278593
2401,-0.0012759036976090817
2402,0.0003688974524006846
2403,-0.001967262753966698
2404,0.0076932963813668605
2405,-0.005184580242504344
2406,-0.0029944935850590654
2407,-0.0029313196701123163
2408,0.0013852171077205697
2409,-0.0015236995941041633
2410,-0.0009923532140710782
2411,-0.0024218180731548355
2412,-0.0015502562167271881
2413,0.002490727428975761
2414,0.0006435583029619236
2415,-0.002056158654909457
2416,0.00460409343658319
2417,0.0049467994861527
2418,0.003130750242775624
2419,0.0031932701381031797
2420,-0.0026204329059483986
2421,0.002298636711976573
2422,0.006191110804333084
2423,0.0005808057300502427
2424,-0.00407178010047389
2425,-0.001980523309985079
2426,0.00291935392934836
2427,-0.0013174348192911672
2428,0.0012522180136242417
2429,-0.0008478117233465757
2430,8.47847352800947e-06
2431,0.00621443226678686
2432,0.002858515595793039
2433,0.0012563793502444456
2434,-0.005482132425468789
2435,-0.0033527122843805
2436,-0.006373912062248695
2437,-0.004979730366312273
2438,-0.0010020007892582675
2439,-0.003004818893149957
2440,-0.002572932085787972
2441,-0.0011860223685428387
2442,-0.000499793650861044
2443,0.0022954352734388932
2444,0.002810322170868896
2445,-0.0010048340745443425
2446,0.0021678641341868286
2447,-0.002344304130505896
2448,-0.0026318429751600644
2449,0.002577656343711073
2450,0.004280096345694394
2451,0.004206526606634682
2452,-0.0021977867600761064
2453,0.0003786812924404543
2454,0.004270096573499046
2455,-0.0021124179539900746
2456,0.00026461077194210765
2457,-0.00046590404366296523
2458,0.00041162535071985126
2459,0.00047619056264138794
2460,0.009272445803829351
2461,0.008844280873044619
2462,-0.0027362409071815495
2463,-0.0038052458490100086
2464,-0.0033066429353589017
2465,-0.0005523767822180545
2466,-0.005821994146203275
2467,-0.003147134732831255
2468,-0.00595288006335794
2469,-0.005873518123571009
2470,-0.002191719615979696
2471,-0.0038274035769291087
2472,0.0027059054008431328
2473,0.009082223228880946
2474,0.00824824466559461
2475,-0.00013934445448736746
2476,-0.0033936530676598516
2477,0.0029388523584457683
2478,-0.002169422151676745
2479,0.003988580452146128
2480,-0.003689703325937734
2481,-0.0027371938873906477
2482,-0.0009218025616827396
2483,0.0010124361375474233
2484,0.007274626132946161
2485,-0.0004681223882917491
2486,-0.0010322699665999378
2487,0.0014967268265762435
2488,-0.0006874772358497448
2489,-0.0024559546046990155
2490,-6.372389365597378e-05
2491,-0.006396891296480931
2492,-0.0036144582680881134
2493,-3.168395046824861e-05
2494,0.00187873109624709
2495,0.005139086958633229
2496,0.003924160182389369
2497,-0.0002273372718395051
2498,0.002373637330798265
2499,-0.0007102581758162158
2500,-0.0010389379917353971
2501,-0.0029134703953626086
2502,0.004419824825649826
2503,-0.0018174452834827225
2504,0.0040064245921817366
2505,0.0033116619617954562
2506,9.445933052425713e-05
2507,0.0008391173066780123
2508,-0.002186686557874054
2509,0.0017339221447072745
2510,-0.007990629960733799
2511,-0.0020991116651076286
2512,-0.002633457545781116
2513,-0.0038860477488300484
2514,-0.005978069560023068
2515,-0.0012374456201026838
2516,-0.004176203232152464
2517,-0.001528991991891571
2518,0.0025266032453831935
2519,0.003020258040988117
2520,0.005519684608068528
2521,0.004652959619631681
2522,0.006048893935947684
2523,-0.002283156485214141
2524,-0.0008559569517524266
2525,0.004191582383987629
2526,0.002088348677639051
2527,-0.00035834063365018133
2528,0.0034022654926832204
2529,-0.0028925950707445226
2530,0.0013427083190120977
2531,0.000805185719263829
2532,-0.0026404552028331755
2533,0.004993432298980401
2534,-0.002651213078876372
2535,-0.007344191188639887
2536,-0.0013025988001021324
2537,-0.0009925160071677479
2538,-0.0030061481186265514
2539,0.002654411996642011
2540,0.003111188373660121
2541,-0.0031887360837456035
2542,-0.007373101377175376
2543,8.517500127512914e-05
2544,0.004465284534559688
2545,0.005507347844114366
2546,-0.004361460558726566
2547,0.0035460102327395833
2548,0.003352533243630211
2549,-0.0009370663498435693
2550,0.0024828625419949495
2551,0.005778650986976149
2552,0.005384575660946543
2553,-0.0061791505669588544
2554,-0.0023593717444648516
2555,-0.0018088460570744739
2556,0.0028378412671669073
2557,-3.148398531779579e-05
2558,5.0735825541587017e-05
2559,-0.003761164855509244
2560,-0.001230606348402611
2561,-0.00275465402122545
2562,-0.008519843128508493
2563,-0.0031721383579162224
2564,-0.0014025726156136845
2565,0.0015676358257959155
2566,0.0022542276295842312
2567,0.001336484650117627
2568,-0.0006559190032184217
2569,0.00590361226664396
2570,0.002132857488469435
2571,-0.004283613347497783
2572,0.006289841820426678
2573,0.002157285161778195
2574,0.0022345230913986816
2575,-0.0016888741872768754
2576,-0.004535278184325727
2577,-0.004923314315979454
2578,1.3249868842103198e-05
2579,0.0032488709790614682
2580,-0.005090060862772761
2581,0.005233953827912918
2582,0.0019616011983709727
2583,0.00040801732919622767
2584,-0.0013346406207542013
2585,0.0004691960965611964
2586,-0.0004553170096022619
2587,0.00039945029663147197
2588,-0.004361181798653141
2589,0.0007651065201951471
2590,0.001349206684667606
2591,-0.0017846310627484471
2592,0.004405626169182119
2593,0.0036323783303276198
2594,0.004762984729500718
2595,-0.0036944711879582223
2596,-0.0020981911447067528
2597,0.00043736607824927144
2598,-0.0009469131728520926
2599,5.5756053861405475e-05
2600,-0.0002238462524448391
2601,-0.002499446361772564
2602,0.00044374157159730865
2603,0.0010753333510799268
2604,-0.00403848109775963
2605,-0.00586035711904812
2606,0.006505817756951223
2607,0.011140345354768773
2608,0.002310674414297104
2609,0.004065603509287613
2610,0.001979625442452712
2611,-0.011902529024702634
2612,-0.0018775549722296224
2613,-0.004177459404447261
2614,-0.0016607520378435214
2615,0.0026903165396178798
2616,-0.00642125644014439
2617,-0.002696593731433076
2618,-0.0026761661498460824
2619,-0.004732702223494038
2620,0.0025105224820684505
2621,0.008551116753607074
2622,0.003703117704575626
2623,0.004618682510498136
2624,0.001424700450036018
2625,0.004151276863755426
2626,-0.00026170560654715375
2627,-0.0036384336813274163
2628,-0.0005965751301978024
2629,-0.002492764232261426
2630,-0.0051976471382601756
2631,-0.0010141504147892205
2632,0.002438189274536937
2633,-0.0006173257555267628
2634,0.00361854983575248
2635,-0.0005316383330458852
2636,-0.0009257066703636657
2637,-6.348633584441973e-05
2638,-0.0030700402161190007
2639,-0.003953996840818095
2640,0.0013973998142764524
2641,0.003680082762175161
2642,0.0005992687990237569
2643,0.002492035117601864
2644,-0.0021702924866664024
2645,0.004051516160788714
2646,0.0010621023247193388
2647,-0.002906527486442021
2648,0.0007720824012685586
2649,0.0008258109362471715
2650,0.00023082342815049228
2651,0.004721069360948718
2652,0.0038711874591893314
2653,-0.0037997667603068283
2654,-0.0035241244741068926
2655,-0.0002476894245084949
2656,-0.004648688184907029
2657,-0.0027752210898086592
2658,0.00041108883361035305
2659,-0.006100523082418162
2660,-0.007713501876252226
2661,0.0033983061839073757
2662,0.007296681992773809
2663,0.002070015814701495
2664,0.004744339905889912
2665,0.003312324543471447
2666,0.004746364145148913
2667,-0.0014633441914451905
2668,-0.0003524391839727619
2669,0.001083570198085619
2670,-0.0009560156744831613
2671,-0.004663144848669435
2672,-0.0006916305399973979
2673,1.082364529123199e-05
2674,0.0014281456113308822
2675,-0.004614213079788727
2676,-0.0018785121186273498
2677,0.003285588107955182
2678,-0.0016140893007832793
2679,0.0023162201816911455
2680,-0.0013119226392961708
2681,-0.0006925289016113511
2682,-0.0007390604149036823
2683,0.00027611382500623144
2684,0.0018782581213567795
2685,0.0027871124561516386
2686,0.0025259507224006357
2687,-0.0011422662035603642
2688,-0.008668982901602753
2689,0.0004380443910333761
2690,0.0029769773566775976
2691,0.0048799353944090264
2692,-0.0012189576184021183
2693,-0.0003015109150067176
2694,0.0017290789835408323
2695,-0.0009674422133239928
2696,-0.008255762326425338
2697,-0.004717411068232766
2698,0.004656879830498424
2699,0.00235744003959437
2700,0.003228245580371521
2701,-0.0013460728107574198
2702,0.0001322546440447863
2703,0.001727597874122952
2704,0.0029074526676089903
2705,0.0003476736537153715
2706,-0.0006554221779494929
2707,-0.002506946010794169
2708,-0.0020134735804918456
2709,-0.0010846242286229445
2710,0.004454971454501577
2711,0.005952219731799394
2712,0.006114638875311561
2713,-0.0034682651367527375
2714,-0.0027160441226067285
2715,-0.002659405169396391
2716,-0.002321476020990007
2717,0.002636803170894795
2718,-0.004624029327629411
2719,-0.003955353466674601
2720,0.0022644347570168148
2721,-0.0025659001764513833
2722,-0.003686041789110502
2723,-0.0008102399315658409
2724,0.005260281291131892
2725,0.0018347632742966927
2726,-0.002712509272553866
2727,-0.000958269203611934
2728,-0.001476210282285004
2729,-0.0019817982289945784
2730,-0.00034525067800301665
2731,0.00034360488736646065
2732,-0.0019485320424171785
2733,0.0019712077080958866
2734,0.0021274753703940143
2735,0.00914459385708262
2736,0.0007836078786335743
2737,0.006677033233370648
2738,0.001972312477291901
2739,-0.0028844470877295
2740,-0.004008812776483898
2741,-0.006864149840058642
2742,0.0032445238374265977
2743,-0.001583159168185416
2744,-0.0074252442645319355
2745,-0.004415704417968361
2746,0.0049083712839081365
2747,0.005445147805636635
2748,0.0027601861000248473
2749,-0.006282416704993323
2750,2.8480084498341482e-05
2751,0.005048488886649114
2752,0.002326227090027779
2753,0.0028649242761683083
2754,-0.001528992011610204
2755,0.0015225332593986288
2756,-0.0010366751851517992
2757,0.0027300158982379846
2758,0.001297373699794593
2759,-0.0020798675270306283
2760,-0.004305513618308353
2761,-0.003778962805140694
2762,0.0028981041067339362
2763,0.0021170065802628233
2764,-0.001280363990659882
2765,-0.001910241130571846
2766,0.001629607891710537
2767,0.0027978145122961023
2768,0.004508605915294479
2769,-0.002724347826072379
2770,-0.0014029409957571235
2771,-0.004810535454035739
2772,-0.0061899903483072245
2773,-0.004447570177265844
2774,0.001725392487638788
2775,-0.0015762584736844741
2776,-0.0058461503512275016
2777,-0.003273328406465121
2778,0.0032529786193099125
2779,0.009799098243831478
2780,-0.0004747447849891423
2781,0.006154561795292125
2782,0.0023332141725192126
2783,-0.0013894866425645021
2784,0.0016476121401308077
2785,0.004073243509985586
2786,0.0004975014659347847
2787,-0.0007482061403766005
2788,0.002306896089661099
2789,0.001082716975094022
2790,0.00021386861305789252
2791,-0.0028447555472465207
2792,-0.007441339192003937
2793,-0.0014040863361755185
2794,-0.0009610358322378731
2795,-0.0007998144192845336
2796,0.0025387589898443873
2797,-0.0029304630883916945
2798,0.001967009420200236
2799,0.0010043376614022673
2800,0.0011380499154197941
2801,-0.0016845730278774625
2802,0.000792231863355251
2803,0.004054417710093405
2804,-7.211873398419583e-05
2805,-0.0005316173367686319
2806,-0.00027370018190467534
2807,0.001742463226767469
2808,-0.0006270560989001771
2809,-0.004226722447072552
2810,-0.002439501558017221
2811,-0.0017164033376682528
2812,-0.002889802773188706
2813,0.00014561842258728128
2814,0.0019748362165016055
2815,0.003108812286012076
2816,0.001647753699299934
2817,0.0018236268689212042
2818,0.005751186644542862
2819,0.00031029935382126915
2820,-4.795611675562778e-07
2821,-0.00030209620169511543
2822,-0.007467344724491969
2823,-0.0020872749167687946
2824,0.006062696077228164
2825,0.0007942215031105909
2826,0.0024348489223306527
2827,-0.00017899621817493543
2828,6.729655962611422e-05
2829,0.0016077645917894918
2830,-0.0015785061134231584
2831,-0.006770994860783764
2832,-0.006010922021722805
2833,0.002082456311781628
2834,-0.0010299127581094407
2835,0.003743016422944624
2836,-0.0031048828523665885
2837,-0.0002418473374628926
2838,0.0012735779346215621
2839,0.0020630190640792776
2840,0.0008750057650038501
2841,0.0028039366441085
2842,0.0004198910030564166
2843,-0.004169076263227706
2844,-0.0014467799978744953
2845,-1.8657861734884887e-05
2846,0.002287190127469727
2847,0.001700573621999304
2848,0.0014075397834914464
2849,-0.006816622035562272
2850,0.0038789098403434197
2851,-0.0033876295525878154
2852,-0.0022714535167469904
2853,-0.0004355672642683186
2854,-0.0049272932172753445
2855,0.00408219709375731
2856,0.005646046948164963
2857,0.0005053388868170167
2858,0.007955536073327527
2859,0.002723973476684488
2860,-0.0016867858378277634
2861,0.0039377073881414395
2862,-0.006701926220226163
2863,-0.009104397145810435
2864,0.002074803962432561
2865,0.005751832768498501
2866,-0.0018519358957101127
2867,0.0034765656829093515
2868,0.005364605693451104
2869,0.0009396253422739066
2870,-0.0011678514478352265
2871,0.001930346092720369
2872,-0.011425839109683937
2873,-0.0015087626462713813
2874,-0.000833175683408665
2875,-0.001402893239446039
2876,-0.0020151811857110173
2877,-0.001008653459306709
2878,0.004731891673383679
2879,0.0009412120165107115
2880,0.0004899924554394048
2881,0.0018483227749437198
2882,0.002718758991207517
2883,-0.002974231165567157
2884,0.0015144914436368059
2885,-0.0050295846197011525
2886,0.005492248721744458
2887,-0.003508527619804672
2888,-0.004739016292450464
2889,-0.0012714303258172426
2890,-5.3486674478547824e-05
2891,-1.3333401871654799e-05
2892,-0.004460483971030646
2893,-0.003122070048173553
2894,0.003686342941428628
2895,0.004628494429176953
2896,-0.0023709320840232546
2897,0.003966354878325796
2898,0.004044784904257968
2899,0.002584300184484854
2900,-0.004712954114058237
2901,-0.002204617074598937
2902,0.005751964135750362
2903,0.0040307285465725085
2904,0.0003896017167748303
2905,-6.480290382013254e-05
2906,0.0022809436926574753
2907,0.002084002279432987
2908,0.004601510383737882
2909,0.004406480195881937
2910,-0.004853905715336698
2911,-0.0038521855404418
2912,-0.006220263263803117
2913,-0.0049587169682462065
2914,0.003277586874628387
2915,-0.003251805124268944
2916,0.0005767216248583834
2917,0.00047609357016646474
2918,0.0009729874397620686
2919,0.002124923600497314
2920,-0.006167938236391449
2921,0.0009829916939883268
2922,-0.006467725788837201
2923,-0.0061257692080786096
2924,-0.004589263630271345
2925,0.0008201236279561028
2926,-0.005051374779053873
2927,0.0070872121554575555
2928,0.009027542312893544
2929,0.005735132854090428
2930,0.003412322874197758
2931,-0.0025523652261028274
2932,0.005373254313124616
2933,-0.0022117483383399432
2934,0.0011103104072107996
2935,-0.0038268411086817547
2936,-0.0008444505383905232
2937,-0.0015576103644831928
2938,0.0051246023153931446
2939,0.001533096200975942
2940,-0.002070199369402167
2941,0.0032956460948549947
2942,0.0011285581682162153
2943,-0.0057263219578791045
2944,-0.0035088874066359164
2945,0.0024919028037705404
2946,0.003212033991806357
2947,0.0010990950365568405
2948,-0.0052916289103485305
2949,0.0009388592636298317
2950,0.002626789464011403
2951,0.002312799281196499
2952,0.0058422357957155
2953,-0.00929739013132901
2954,-0.0016216625577516429
2955,0.007255717571088436
2956,-0.0020320918891918744
2957,-0.0015225285020229644
2958,0.0007346602109578448
2959,-0.0036684348151635876
2960,0.006583803985451999
2961,0.0018904801639603626
2962,-0.005907893819576286
2963,0.0006965989191917328
2964,-0.009082425870646393
2965,0.0005799810829589594
2966,0.002091524342203147
2967,-0.002549093232115918
2968,-0.003632360099487842
2969,-0.0008013304615869625
2970,-0.0012237860676226897
2971,0.0025801807609840965
2972,0.002360315470751601
2973,0.0014056608198912603
2974,0.0016768665733244408
2975,-0.0016170152720430264
2976,-0.0007848250481857014
2977,-0.004767570712569084
2978,0.0032714659186892613
2979,0.005593799980431821
2980,0.004001546666816269
2981,0.0028765024207188968
2982,0.0013828703420093492
2983,-0.0034401240964544912
2984,0.00023355168107691646
2985,-0.0014551429150504534
2986,-0.005042683829078678
2987,0.0026380673077087465
2988,-0.00267119655331673
2989,0.0020350778064142944
2990,-0.0010428530447277613
2991,0.0013768016982271501
2992,-0.002233767154219553
2993,0.000990859049658354
2994,0.004426737259188233
2995,-0.0022756248961908494
2996,0.0028313589846431144
2997,0.0008584317238265263
2998,0.0035366598198779964
2999,-0.0003607980991125869
3000,0.0009255236081842306
3001,-0.0010142000877076587
3002,-0.002943980937570318
3003,0.0034948570308503584
3004,-0.002768729474769728
3005,0.0004978799561849417
3006,-5.501430322197784e-06
3007,-0.010490794617844922
3008,-0.004313955958869541
3009,-0.0023991048691427985
3010,0.0008553172308662978
3011,-0.00032532912729375113
3012,0.0011426987600185266
3013,0.0009850419496118396
3014,0.0011812560365209689
3015,0.003937765298669292
3016,0.0007881816247687929
3017,0.0026348271113648437
3018,-0.004004764782195042
3019,0.0043552947564109
3020,0.0031120308351091242
3021,-0.0006271470569868681
3022,0.004201510494425565
3023,-0.001136676020155188
3024,-0.0004813690516898995
3025,-0.0010517667624977012
3026,-0.000536160091378992
3027,-0.0009160963025624871
3028,0.001709334371789521
3029,-0.0010065726903814784
3030,0.004673949754734468
3031,-0.001409576563023534
3032,-0.008324794231506396
3033,-0.0025209288267008124
3034,-0.0042143544728881505
3035,0.001962732597932334
3036,-0.0039178692716185255
3037,0.004205000940487879
3038,0.001318216820904784
3039,0.002078464065827434
3040,0.003924764911468245
3041,0.00029061580951885487
3042,0.00024057400207638108
3043,-0.0005546146553530472
3044,0.007492463861878881
3045,-0.008559066423003726
3046,-0.002884660046758289
3047,0.0009420718458352587
3048,-0.0013679620753698028
3049,0.003322445649075226
3050,0.006059825705545388
3051,-0.0012975052561006034
3052,-0.0023808562655325965
3053,-0.007280477820097454
3054,-0.0010449564745916452
3055,0.004669485532476645
3056,-0.0033837463901827992
3057,0.0012873526444258116
3058,0.000693670861298382
3059,0.0015400138582487722
3060,0.0002766138737749276
3061,0.003759061735629298
3062,-0.00032075643294905004
3063,-0.002486522322031051
3064,0.0021163666357067942
3065,0.0035904438655107885
3066,-0.0021726921499782446
3067,0.001739121982304902
3068,-0.006266506316710095
3069,-0.0012916124338437224
3070,0.0043021473995362314
3071,-0.005705172318602207
3072,0.00039042745080993327
3073,0.004560933675627021
3074,-0.00014343724254571588
3075,0.002105926135850809
3076,-0.002617921221461126
3077,0.002919039608115752
3078,0.007633480243242979
3079,-0.0029187457926720412
3080,-0.006301975765056855
3081,-0.002222701362377303
3082,-0.000867175956582724
3083,-0.0041410333504356845
3084,-0.004378032133988104
3085,-0.001660948062867212
3086,0.001598012765956041
3087,0.0018585430449528234
3088,0.0065260582837393145
3089,0.0027725757206766653
3090,0.0010000478085604274
3091,-0.003769393194586165
3092,-0.0035720227211043527
3093,0.003114360261793842
3094,-0.0011587376000574533
3095,0.001449296559834336
3096,0.0003992306514415539
3097,-0.004227051233831899
3098,0.013014338169153122
3099,-0.0009466889246876574
3100,-0.0012558774840263597
3101,0.0016409657492064463
3102,-0.001854740581324765
3103,-0.001811889997007982
3104,-0.0017929801771482947
3105,-0.007622168081590941
3106,-0.005345892788081119
3107,-0.0016881672255503796
3108,0.007166978167616353
3109,0.005378904089841806
3110,-0.0020552658132753565
3111,0.006595210978321511
3112,-0.004540864595121435
3113,0.004286358411029232
3114,0.001563365603867082
3115,0.0019256367758735196
3116,0.004167788185522825
3117,0.004330023677414506
3118,-0.0072156070180892234
3119,-0.0058272075266488695
3120,-0.004224747878664738
3121,-0.0010114519352024485
3122,-0.0044804743417032455
3123,0.0017282449903780524
3124,-0.0038831798558962814
3125,-0.0015506917806833763
3126,0.004448545833560599
3127,-0.0013165602762321722
3128,0.005946970855278663
3129,-0.0013465558215866556
3130,0.003673668887282726
3131,-0.001202706509196039
3132,0.002028411049710693
3133,-0.003195757137020633
3134,-0.00558436936894653
3135,0.001681085449449931
3136,0.0026423051926620367
3137,-0.005631891258394426
3138,0.0003942202992616838
3139,0.003336919889021926
3140,0.003217744984106985
3141,0.007089067677790823
3142,-0.0009852454043206924
3143,-0.0032292147213046282
3144,6.339828092512788e-05
3145,0.0033959269904496325
3146,0.00446363101334799
3147,0.0032439345763134314
3148,0.000969177124741284
3149,-0.002044028718150968
3150,-0.005378101292829085
3151,-0.0017200296609498397
3152,-0.0010167178138992244
3153,-0.0016535507874329124
3154,-0.0009979449807221655
3155,0.0030716795768418494
3156,0.0031232941683857623
3157,-0.0069542133890051
3158,-0.00810511166216858
3159,-0.007428520395583931
3160,0.0017626954376749378
3161,0.004528810340708275
3162,0.0034127913194629787
3163,-0.0015502516894743863
3164,0.004181449702896787
3165,0.004691608000208182
3166,-0.012483054597608467
3167,0.0064973835495410765
3168,0.005891102792695387
3169,0.0005082983247512805
3170,0.0008793731462640141
3171,-0.00012608115246141686
3172,0.0005511712117614118
3173,0.001708471358247336
3174,-0.0021715329303116163
3175,0.00017693176553228423
3176,-0.0008188821620968862
3177,0.0014227738081416304
3178,-0.00012593896752855285
3179,-0.0074365302121867805
3180,0.0034382421850850126
3181,-0.0019860182197556043
3182,-1.5086166827736613e-05
3183,-0.0009673599948377531
3184,0.0028395274887161384
3185,-0.0005320615569443347
3186,0.0037700296704641367
3187,-0.0026615028564877276
3188,0.0014863213532299926
3189,-0.0008648807384413256
3190,-0.004600243066469996
3191,0.007640808552663507
3192,-0.007775177934339768
3193,-0.00453779341374356
3194,0.0020167954520545883
3195,0.0032448650781351437
3196,0.0038236402071368785
3197,0.0063414972485515515
3198,0.005776029824454834
3199,-0.00278018537528831
3200,0.003866362594537627
3201,0.001807100954813237
3202,-0.007545326089457248
3203,-0.006750184433370924
3204,-0.0023815381062142144
3205,-0.0010805211121095743
3206,0.00019438925688043326
3207,0.0062688600340364865
3208,-0.006159562327521079
3209,-0.0040522692234958
3210,-0.005173645407141626
3211,-0.003661654338576445
3212,-0.003307323771281007
3213,-0.0001972195020527069
3214,0.003042878365219267
3215,0.001465707883186479
3216,0.006037267491092131
3217,-0.00031809444001454877
3218,0.0024960892651158216
3219,0.0014900703629257515
3220,0.0004257795635242666
3221,0.0002457726573736087
3222,0.008601299741750534
3223,0.005605434109032257
3224,0.0015302865376373223
3225,0.0007907332266420715
3226,-0.0022626390069351333
3227,0.0051427915804940685
3228,0.0021565617771278772
3229,-0.0033189239510385046
3230,-0.007039354591548528
3231,-0.001915708856514398
3232,0.0028619754961355763
3233,0.0048585951507435065
3234,-0.002667681591221249
3235,-0.0015952789204567372
3236,-0.002575184149566829
3237,-0.002559217012123292
3238,-0.006605506928771126
3239,-7.898511524583388e-05
3240,0.0013985439678517227
3241,-0.0018296950270834285
3242,0.0008774321027457226
3243,-0.0003378997738290677
3244,0.0027117970135098427
3245,-0.004460016550325196
3246,0.0036369850500031263
3247,-0.006065130716044103
3248,0.0016190809972164424
3249,-0.005698800288285958
3250,0.0006438971179475199
3251,0.00028498713653209856
3252,-0.006956360131196217
3253,-6.231700673930626e-05
3254,0.0020259290770553735
3255,0.006458931654636273
3256,-0.0010286482115142628
3257,0.0024785511247601213
3258,0.00023904702001560293
3259,-0.0019012198005741478
3260,-0.007529059834521481
3261,0.004267467371598282
3262,0.005579204213606312
3263,0.005956638571329503
3264,0.0020748653567012713
3265,0.0037567724047031046
3266,0.004586528933476509
3267,0.006041566834575885
3268,0.004522335426112318
3269,-0.0012546043199801555
3270,0.0016003341870890041
3271,-0.0006395709505299524
3272,0.0016426659460935418
3273,-0.007685647515345679
3274,-0.002862951930753711
3275,-0.0054233230887989585
3276,-0.007100079300132683
3277,-0.005213192186349523
3278,0.0011438848867920091
3279,-0.0024225445370182584
3280,-0.0017572947442435413
3281,0.0020843648321130052
3282,-0.003180085436112156
3283,-0.004521650778197189
3284,0.006448896509713002
3285,0.012702042930689893
3286,0.0017609509869944053
3287,0.001249861802713137
3288,-0.002732394676854351
3289,-0.004361227782517897
3290,-0.008577592086123064
3291,0.001167816970893269
3292,0.005496255746917832
3293,0.00496523650445817
3294,0.0020869771735540776
3295,-0.003013151443498889
3296,-0.0016877169545286537
3297,-0.0017312426426279543
3298,-0.0010306728300816578
3299,-0.003019970731223445
3300,-0.002486059036121894
3301,-0.0005326334022188097
3302,0.004028717666955223
3303,0.0026627690974054888
3304,-0.000396054993883458
3305,0.0019229927469010203
3306,-0.002517164555659191
3307,0.0015386113102417182
3308,-0.0075676107375475445
3309,0.0018395937557777863
3310,0.0049233545357867895
3311,0.0007769596053755056
3312,0.010506381383723052
3313,0.0036470782109351016
3314,0.0042413263103354025
3315,-0.009264957296350827
3316,-0.005454505679082747
3317,0.004541608598457901
3318,0.0006936913799217561
3319,-0.007969068036827629
3320,4.009355796450245e-05
3321,0.0006903706536398619
3322,-0.003194617589090681
3323,0.000739507054642435
3324,-0.004338093727169319
3325,-0.0012319788288861887
3326,-0.0016310896524944773
3327,0.0003736945218300071
3328,0.00010100605605656808
3329,0.003474485783235757
3330,0.007547518105902322
3331,0.0036914872622181762
3332,-0.006010630125246134
3333,-0.00032749806806957674
3334,-0.00016432488618631225
3335,0.0018570947123704232
3336,0.007093532082419861
3337,-0.0005661153323632895
3338,0.0005014515219901707
3339,-0.006061314672717185
3340,-0.002407612098486899
3341,0.003682659653370922
3342,-0.0042755431051969385
3343,-0.0031319421604160663
3344,0.0005888567459858551
3345,-0.004007501764807835
3346,0.001005294673185917
3347,0.0008122924670935731
3348,0.0008495710827283991
3349,-0.0013015030025321159
3350,0.0009216444440438374
3351,0.002520922881402739
3352,-0.003947998944666525
3353,0.00014601394530975795
3354,0.001361531653118869
3355,0.001027419583352675
3356,-0.002905649759765176
3357,0.0018717058666747263
3358,0.009045028116540368
3359,0.005418712411089509
3360,0.0016381825600582881
3361,-0.0003409398945775858
3362,-0.0022061365368141253
3363,-0.0008055897321862238
3364,0.002837805216751938
3365,-0.0060722601257820995
3366,-0.0015629513694433023
3367,0.006038496213717433
3368,-0.004721850421650576
3369,0.002203755931685543
3370,0.003392822948846015
3371,-0.007753274004332242
3372,-0.003703830927567142
3373,0.0003255448074274492
3374,-0.0026680116329080806
3375,-0.002435192732018374
3376,-0.001401669149449042
3377,-0.0032913805820430023
3378,0.004312168242638863
3379,-0.0012345553184191452
3380,-0.00253371530381381
3381,0.003036034623981887
3382,0.0010121714205544603
3383,0.0023809321434451643
3384,-0.00634625671700175
3385,0.000368707300786926
3386,-0.0017609984955094405
3387,0.001678532818910507
3388,0.007791346752307483
3389,0.0013246984759449718
3390,0.0023548683453273062
3391,0.0011980947651571167
3392,-0.0007228604541965541
3393,0.001156547865020719
3394,0.00010353079588013882
3395,0.005332888834687096
3396,0.006683447407140975
3397,0.005479551478954145
3398,0.003652831825833281
3399,-0.0005293965352912186
3400,-0.005458662185407174
3401,-0.010078691460801656
3402,-0.0062029134927190505
3403,-0.01085213532128103
3404,-0.0050129212728786815
3405,-0.00010973349695957667
3406,-0.0016978609435609037
3407,-0.005804877318181873
3408,0.003500470101119653
3409,0.00813626237663535
3410,0.004633358322727274
3411,0.004659475134444802
3412,-0.004484614507275811
3413,0.0007721794296328098
3414,0.0033650524553988197
3415,-0.0018011506574115484
3416,0.0003002211897693112
3417,-0.004733628137280142
3418,0.0015462977622288064
3419,0.01044086719516265
3420,0.002834822757645381
3421,0.00017335807242533328
3422,0.001188074120374135
3423,-0.0005884957317860619
3424,3.452564949973404e-05
3425,-0.0010171160151394177
3426,-0.0007043721292672583
3427,-0.0011817293714062906
3428,0.0011334517341047897
3429,-0.008130778897473752
3430,-0.002042603518888828
3431,0.003641762822095043
3432,-0.0019809970358701896
3433,-0.0022272250310973324
3434,-0.010188855194246504
3435,0.005429397563678778
3436,0.00724746856059757
3437,0.011537521690628823
3438,0.00022375255544734504
3439,-0.005311691974163245
3440,5.381495943991045e-05
3441,-0.00402924519922194
3442,0.002260312065993232
3443,0.003598962065674069
3444,-0.002276344195815381
3445,-0.006616968633714906
3446,-0.0032895782261595577
3447,-0.005877870197756259
3448,-0.0005752791425851431
3449,-0.00217377230287601
3450,0.0010626070535600211
3451,0.0024859400664212546
3452,0.0016147461116581326
3453,8.976749005482586e-05
3454,0.002008966571161971
3455,0.0035650444004910724
3456,0.0016696940343878183
3457,0.004792518438919114
3458,0.005444128953276173
3459,-0.00491750748791194
3460,-0.004184618949362952
3461,0.0009058909578464874
3462,0.0025827603273604754
3463,0.003173171783161977
3464,-0.0016713188635565732
3465,0.001774222909146696
3466,0.005308952091924865
3467,0.004420306053261097
3468,-0.0019014105466262417
3469,-0.0016586115837807155
3470,-0.005160425214248957
3471,-0.004300873849494412
3472,-0.0013105179128109767
3473,0.0015046191448337947
3474,-0.002020021982433464
3475,-0.0026755845453822003
3476,-0.001761928828935267
3477,-0.002062311837839721
3478,-0.0034971933093188128
3479,-0.007821640212834609
3480,-0.0027976966288870853
3481,0.002370115169992193
3482,0.002266805037396161
3483,-0.0019492498256457082
3484,0.002932399859957772
3485,0.005523116102911656
3486,0.0024314460307314385
3487,0.004006720816810541
3488,0.0018747917171574278
3489,-0.0018314745602145879
3490,0.001833233881887773
3491,0.004618098215056475
3492,0.0009408122048550609
3493,0.002500371554532003
3494,0.0002533923763227853
3495,0.0053672593922451965
3496,-0.0007495113053605264
3497,-0.003403339285826104
3498,-0.0051561566636680045
3499,-0.0047177159946748485
3500,0.0028177503357793565
3501,-0.0030655041889302067
3502,0.0018420783368214184
3503,0.0026425414196512512
3504,-0.0017229392377971359
3505,-0.0038207721245169567
3506,0.0040631926978187075
3507,-0.002469525241522077
3508,-0.0027983449514113277
3509,0.00589071769011251
3510,-0.0042977775429743435
3511,-0.0042291406994565016
3512,0.0010287090591036812
3513,0.004644840639969085
3514,0.007297408346534269
3515,-0.0016033223687074013
3516,0.0004113895133245867
3517,0.0002364615838783713
3518,-0.0034392980488268353
3519,-0.005431722060470488
3520,-0.0020620099266831166
3521,-0.00277613222598635
3522,-0.0032708153711883525
3523,0.0016814745095992418
3524,0.003241360970114052
3525,-0.0034601415397465954
3526,-0.0002446802659337062
3527,-0.00040388515687887587
3528,-0.004152826228551393
3529,0.0020165448231396314
3530,-0.000814173119301969
3531,0.0031624573177525418
3532,0.0011038348128857046
3533,0.012358093297778887
3534,0.005432046105934238
3535,-0.00375618163138311
3536,0.0009788785054760801
3537,0.0024589111269002623
3538,0.00027412543487108885
3539,-0.0018338074015671916
3540,0.011259773382134849
3541,-0.000666119598757977
3542,-0.01495976078214765
3543,-0.002548992400591893
3544,-0.0005974752881150649
3545,-0.003946122820034279
3546,0.002377010340495372
3547,0.004722492212099091
3548,0.0004052573590963022
3549,-0.003070641242443696
3550,0.0020852012897778806
3551,-0.0022095988825175843
3552,-0.0020120854512259458
3553,-0.0033405037494648043
3554,-0.0012707251461707338
3555,-0.000928066401501372
3556,-0.0052173450250537455
3557,0.00341346263397411
3558,0.0002579172063697545
3559,0.004893329977488843
3560,0.002790707316386032
3561,-0.002155041203527528
3562,0.0019378523300175986
3563,-0.0007631678729294478
3564,0.0056920454316440215
3565,0.004075904083776172
3566,-0.005275812227984868
3567,-0.0001784026309381622
3568,-0.0006506961245362868
3569,-0.0003189128187060103
3570,0.003966866864128739
3571,-0.0009084664598303406
3572,-0.005719103583733871
3573,-0.00029632913152422523
3574,-0.0005697226226787661
3575,-0.00022679042336960602
3576,-0.00010410353263275336
3577,-0.004659145248325686
3578,0.0007526560870094109
3579,0.0074656092297370425
3580,0.002327480887696902
3581,-0.0038000016398510384
3582,-0.0009603697815160853
3583,0.0004792693966749178
3584,-0.0004089966744710502
3585,-0.001986319905342525
3586,-0.0020027684552309695
3587,-0.002584610351664931
3588,-0.0020983323267800315
3589,0.0068715516622195275
3590,0.006553886102415602
3591,0.0005919343392466556
3592,-0.0011765562832461874
3593,3.001750416836528e-05
3594,-0.00028638902648937467
3595,0.004079671394895357
3596,0.0019654293264521425
3597,-0.006332344253488156
3598,-0.0009418732877074006
3599,-0.0013445213417655174
3600,0.008745105021423278
3601,0.0002261122318994264
3602,-0.008556511645919772
3603,-0.006747554982136995
3604,-0.001507230405467002
3605,0.004244919426183616
3606,0.001456004505439961
3607,-0.002424568781484067
3608,-0.0012905847998214547
3609,0.0040379112209483325
3610,0.0015454897911485396
3611,-0.0026202793964381667
3612,-0.0012921189398867172
3613,-0.0006340422144499556
3614,-0.0002409859724901483
3615,0.0028228466079368037
3616,0.0022988399658109924
3617,0.0038744007364362645
3618,-0.0016271940761252192
3619,-0.0005092071126475747
3620,0.003660776732716562
3621,0.0035597395488419876
3622,0.005034933881205449
3623,-0.002404621513390823
3624,-0.01304736253828695
3625,-0.010209603252639
3626,0.0014258635041746355
3627,-0.0017802480114740282
3628,0.0036428814130691177
3629,0.007186777099522106
3630,-0.0011728514558619766
3631,-0.00037030591088987007
3632,-0.0006355778376001403
3633,-0.0016704178894447336
3634,-3.307274084079874e-05
3635,0.004854600169399932
3636,-0.0025205039528304485
3637,0.0008622990481337543
3638,0.001449982361771322
3639,0.0029652228648681164
3640,0.005177223675507815
3641,0.002891381605378487
3642,-0.0031646790264433814
3643,-0.0062685971798877305
3644,-0.00602470843065597
3645,0.004134231666992181
3646,0.0018720996162897331
3647,0.0011678386888685829
3648,0.0011221006473693552
3649,-0.005213347745564306
3650,0.005704372687614073
3651,-0.008152652277884167
3652,-0.005921486533369174
3653,0.004100842868472341
3654,0.002072175901301331
3655,-0.002190641646924474
3656,-0.0004678700475951019
3657,0.01112222397445313
3658,0.0016107460316936856
3659,-0.00026430667800064755
3660,0.0029432812033888377
3661,0.0003838156652898068
3662,0.0005997987081838574
3663,-0.0018692762045081947
3664,-0.0051755179335948856
3665,-0.009106910116714976
3666,0.0004261461128558623
3667,-0.0024645373790117674
3668,0.002968001167671966
3669,-0.0033863966446646843
3670,-0.00046708097035716434
3671,0.003973052878152883
3672,-0.004846453854776233
3673,-0.0012838120673622291
3674,0.005631297990576418
3675,0.002511916128968797
3676,-0.0016072192996250106
3677,0.0024372166076719673
3678,-0.002687062476661556
3679,-0.004348600507364325
3680,0.0025299696554649895
3681,0.006416734249792817
3682,0.003886131278138442
3683,0.006000584232201732
3684,-0.000968994634642218
3685,0.002710342305650629
3686,-0.0011042856452233851
3687,-0.006322465765906963
3688,0.0019217767538496529
3689,0.0010983513990556384
3690,-0.002065527941041558
3691,0.0047328984693959615
3692,-0.0020894333369241343
3693,-0.0012116674834455315
3694,0.0007060769283442417
3695,-0.008931515602141187
3696,-0.004005680382443491
3697,0.002681801715785562
3698,0.002585598559462223
3699,-0.001546827351344599
3700,0.0012254814519505434
3701,0.0011125084036070192
3702,-0.0021474827780168498
3703,-0.0019871431492223413
3704,0.0035780822707237193
3705,-0.0014212378542167968
3706,-0.0009386561638356841
3707,-0.002781072967709986
3708,0.006180380281208445
3709,0.0031622013272012608
3710,-0.00549794098861911
3711,-0.0024341502135816605
3712,-0.0032245279389762974
3713,-7.24263953328242e-05
3714,-0.0015905393345989052
3715,0.0036059470659207254
3716,-0.005225131977572257
3717,-0.0012075443679699736
3718,0.001276219130334379
3719,0.0077282588024495304
3720,0.005933993708294047
3721,0.0013344933230455287
3722,0.0008517103009405991
3723,-0.004157241386375922
3724,-0.0012661984804512687
3725,-0.0014999230333850467
3726,0.00464665717192906
3727,0.006252005054371049
3728,-0.0007969979307724754
3729,-0.0020618517218644293
3730,-0.000683212834290672
3731,0.0029862698542877167
3732,0.001136697263965144
3733,0.002246216257899252
3734,-0.005216548285019001
3735,-0.0072598247994118585
3736,7.924644770260746e-05
3737,-0.008947177659989283
3738,-0.003424021589702779
3739,0.003509669259805266
3740,0.008270514697493098
3741,0.001377424151534341
3742,-0.00300670830127428
3743,0.0009084132275712746
3744,0.000929646721085425
3745,-0.0019745323380657067
3746,0.00524554147515502
3747,0.0031826374332704164
3748,-0.0030914473774477447
3749,0.0012341480740232242
3750,-0.00228508819906364
3751,1.820022395058324e-05
3752,-0.0015070943606648717
3753,-0.0028928508990618967
3754,-0.0027911292213527
3755,0.0008902331483379121
3756,-0.000829270524181849
3757,-0.0041275166860107165
3758,0.0032380937082070703
3759,0.0006259386678358087
3760,0.0023359661668383627
3761,-0.0015157950953093614
3762,0.0018057983221182287
3763,6.784784672500196e-05
3764,0.0012066534709271482
3765,0.0010079668587705398
3766,-0.0016343376958527726
3767,0.003964693431674571
3768,-0.000875608582114152
3769,0.002582601232755763
3770,0.001817285906067629
3771,0.003416376854644257
3772,-0.0020035663960597423
3773,-0.0011110145531961334
3774,0.0011217210702743948
3775,0.003143537146335194
3776,0.0018842518101186232
3777,-0.004743866331854613
3778,-0.004373159949483598
3779,-0.005235392969560896
3780,0.006947332310293977
3781,0.0010894578435395944
3782,-0.005003868869951334
3783,-0.0018636753120243087
3784,-0.0009488882250824121
3785,-0.0031617519889838384
3786,-0.0053133983154881595
3787,-0.00030525912416089034
3788,-0.0020265822234949524
3789,0.008126581127621522
3790,0.0038034246865874238
3791,-0.0007353694693351866
3792,0.002200413677977329
3793,-0.0004916215374714365
3794,-0.007876415858826976
3795,0.0030034927346250014
3796,0.00187298163517278
3797,0.0036260136541438415
3798,0.008610966605971174
3799,-0.008870438086845369
3800,0.00039677079918333524
3801,0.00037293444821006813
3802,0.0002135245643070903
3803,0.0004121796776811338
3804,-0.004451797596194415
3805,0.0009020559702498741
3806,0.0029951822621540995
3807,0.0004609007228387786
3808,-0.0005494837701153221
3809,0.000392592873057691
3810,3.10975506057562e-05
3811,-0.001998872878824602
3812,0.005048360118588427
3813,0.0011109773373130082
3814,-0.004919626625011728
3815,0.0009897920588773073
3816,0.004363419934923601
3817,-0.004534086888302601
3818,-0.004856440189287305
3819,-0.001170735122868128
3820,0.00029316676184146934
3821,0.0050465000628544705
3822,0.006686442679581887
3823,-0.00018513425252481182
3824,-0.0024428855556158134
3825,0.0022977632395078385
3826,-0.0025441424288425345
3827,0.0008808034102552997
3828,-8.529310784505077e-05
3829,-0.002520489399981913
3830,0.0012720191053629537
3831,0.00044754601051805697
3832,-0.007653064855603964
3833,0.00039518908823825936
3834,-0.004036345207969668
3835,0.0003032314925488933
3836,-0.0013837494322754187
3837,0.0024186569595488604
3838,0.0024343252934976543
3839,-0.0017941375573924286
3840,-2.3307342345813345e-05
3841,-0.0034203993961058757
3842,-0.000679627214150335
3843,0.00105644491489733
3844,0.005894611537772987
3845,-0.004200688122347486
3846,0.004387744888634094
3847,0.009641108313569952
3848,0.01286239327252932
3849,-0.0022642299039059713
3850,-0.00729839195715515
3851,-0.0021147232404403644
3852,-0.000593071969513059
3853,-0.004519096825433973
3854,-0.00386325977270527
3855,-0.0023818867690567633
3856,-0.007202204353128147
3857,0.0020066133906707657
3858,-0.00112047604559571
3859,-0.0007509196034916135
3860,-0.0019993340609322195
3861,-0.00605071391737221
3862,0.0011418412731892466
3863,0.0038554674381567865
3864,0.004421894457569308
3865,0.005867627117016654
3866,0.0006411828434337071
3867,-0.00047270134711626006
3868,0.0014546858769468787
3869,-0.0012159204672932949
3870,0.0040800279963564366
3871,0.005172460044104521
3872,0.004010261117206182
3873,0.0027003908715134816
3874,-0.00372675556305051
3875,0.001430304242429752
3876,-0.0049501347217377825
3877,0.0006319509704940281
3878,0.001869131533939269
3879,0.0038528925737734074
3880,-0.0024367537772197936
3881,-0.006503826309247212
3882,-0.0011811402416663386
3883,0.00042572953474719066
3884,-0.003113022349225003
3885,0.0015633904538606067
3886,0.0052804335451459294
3887,-0.0036742582333437876
3888,-0.002353521340685295
3889,0.0013932098161615232
3890,0.002808184530591432
3891,-0.00827648334735667
3892,-0.0032434019256665416
3893,4.256356144353903e-05
3894,0.002873898476958313
3895,0.0014369878918032066
3896,-0.005974415514078171
3897,-0.008496457732822031
3898,0.0031095474728299547
3899,0.003430545767129478
3900,0.001981679816579998
3901,-0.0044593531737193905
3902,0.00421051817245735
3903,0.0036963114289301716
3904,-0.0004428817299929385
3905,0.0032137623765435865
3906,-0.0005222920418840316
3907,0.002691814934811956
3908,-0.0005813674116058633
3909,0.0021544609235146037
3910,-0.0028593623418275323
3911,0.004125621237046897
3912,0.0006765479484940225
3913,-0.0026059147675770427
3914,-0.006169671766208692
3915,-0.00025103575332190847
3916,0.002797110367548962
3917,0.0004126027875430132
3918,0.0023655278025528567
3919,0.005114065789533951
3920,0.0012649806512298693
3921,-0.007042237943477924
3922,-0.0007103289705935687
3923,0.0017802530995168885
3924,-0.0021096238748015694
3925,0.0037903376746037543
3926,0.006288455297205189
3927,0.0009553652501250679
3928,0.004810124154444146
3929,-0.0010908726273648525
3930,-0.0014545661767017097
3931,-0.0018639239797157373
3932,-8.701741811516055e-05
3933,-0.002338446906570363
3934,-0.0019040104751804673
3935,0.004483466102119615
3936,-0.0034810689994821697
3937,-0.006475619536398651
3938,-0.005249167617371543
3939,-0.006061898514775159
3940,-0.004935929249202817
3941,9.093772865877321e-05
3942,-0.0017603160225340888
3943,-0.0011181176264986933
3944,0.002915873784835571
3945,0.002984245649038139
3946,0.004751580422345384
3947,0.002246573259409034
3948,0.0005290331066836029
3949,-0.00030338453047345365
3950,0.0031915843346717945
3951,0.007353442976038508
3952,-0.0012874802350425667
3953,-0.0010582380841709128
3954,0.0017288826137026123
3955,-0.003111107307649026
3956,0.005401251608063706
3957,0.007092771318712384
3958,-0.003871363651535404
3959,0.004613882104079906
3960,-0.0037027440690974075
3961,-0.004405595743404505
3962,-0.0047138323141640666
3963,-0.008130184428867728
3964,-0.005976821070738111
3965,-0.005923659234244259
3966,0.006225584413981983
3967,-0.0045064011637367864
3968,-0.003954131306197112
3969,0.004993627507452407
3970,0.004920792723097376
3971,0.004053461394472688
3972,0.006457169821443421
3973,0.0027293925434971247
3974,-0.0005564352684126177
3975,-0.0023684701260924222
3976,-0.0011899248685539217
3977,0.002489032794707337
3978,0.007380918258062004
3979,0.003633916986862733
3980,0.005435095321318596
3981,0.0009390516035455293
3982,-0.0013191519130146875
3983,0.001762081846618026
3984,-0.009617963020876936
3985,-0.0020706320370308577
3986,0.0013806151873464716
3987,0.002109582289682173
3988,0.0036474710744860443
3989,-0.005914587103021508
3990,-0.006776662785007131
3991,-0.005975296016113367
3992,-0.00392633642142529
3993,0.0018037926275136576
3994,0.0021187960976330883
3995,-0.004029841879878864
3996,-0.0036814046447173126
3997,-0.0032528349931096497
3998,0.005624325337427597
3999,0.006210607727307133
4000,-0.004976664432434027
4001,0.001919974364874984
4002,-0.004582671859307117
4003,0.006639217691614139
4004,-0.003934919764222073
4005,-0.0008734063954457076
4006,0.006899471109533423
4007,-0.0030676926586589662
4008,0.0026582476843942347
4009,0.0010639170166064221
4010,2.42284850460444e-05
4011,0.0008908679025808278
4012,0.0033400397881695396
4013,0.0025431888720429553
4014,0.0019774602046442706
4015,0.0005167303502826761
4016,0.0009667095294093094
4017,0.0014506075112074484
4018,0.0022419203299287403
4019,-0.005586347067403451
4020,-0.0015730957783658215
4021,-0.005779044933197647
4022,0.001447769563857712
4023,0.0015884566360214285
4024,0.0020317878638161906
4025,-0.00867723128320539
4026,-0.003928449175761295
4027,0.006457267820694376
4028,0.006011843425104047
4029,0.0008523330124400562
4030,-0.010313497049740997
4031,0.003947826547314596
4032,-0.001346778671927006
4033,-0.006787218610966603
4034,-0.0024063063630639005
4035,0.0052509847428338224
4036,0.0012208519131117791
4037,0.014720350969617591
4038,0.0015583223165814217
4039,-0.008184693254411915
4040,-0.0036589366515322706
4041,-0.004309831067186726
4042,0.005708477615804561
4043,-0.0024790709756542587
4044,-0.00853566767845789
4045,0.0024563043171198663
4046,0.001467533496947374
4047,0.0017474348294687341
4048,0.001896266448199015
4049,0.0010558837672400411
4050,0.004222936233475723
4051,-0.002069366789086844
4052,0.005009646041974621
4053,0.00760591593242361
4054,0.001212897151342679
4055,-0.002576397201406829
4056,-0.004957725684760912
4057,-0.004654815857993467
4058,0.0020233616726985162
4059,-0.0033155780796198632
4060,-0.0038738485580306114
4061,-0.0015954897046738994
4062,0.0006236254564664073
4063,-0.005163644051354811
4064,0.0055441186928449045
4065,0.004837431948656799
4066,-0.005042354005513016
4067,-0.0012943301082590127
4068,2.0534055117845187e-05
4069,-0.0019463708818911185
4070,0.0005149889631014468
4071,0.002777418677675402
4072,-0.0041120703271298725
4073,0.0008807317696180369
4074,0.0013147571577023214
4075,0.004175665667887541
4076,-0.0009325790456087817
4077,0.00764440174575895
4078,0.008860038946510867
4079,0.00012756348303839295
4080,-0.003345159792192213
4081,0.0036337557335582747
4082,-0.0004738378056843538
4083,-0.0070905502815707296
4084,-0.0005065723532155265
4085,-0.004736786073509288
4086,0.0017587289551420412
4087,-0.0031447397095805216
4088,0.002496680134408378
4089,0.0024228141744801375
4090,-0.007205989703971364
4091,-0.0033934856022460203
4092,-0.0013228125813571565
4093,-0.0013789935415968752
4094,-0.0003702297687363694
4095,0.0022450481458138223
4096,-0.0022399205338934514
4097,0.001802812172683979
4098,-0.00038072312029163377
4099,0.0013454814829494208
4100,0.0030495499261663037
4101,0.0006392514143993
4102,0.004387137767729995
4103,-0.00010402484175439652
4104,-0.00013623558718128988
4105,-0.00022510475139434286
4106,-0.00011002833221767684
4107,-0.0025162236616966104
4108,0.002409603134082776
4109,0.0032719598081679836
4110,-0.001829293175328252
4111,0.0013427585886772349
4112,-0.003670746831810741
4113,-0.0018901266404036917
4114,-0.003658693895784446
4115,-0.005210522418840402
4116,0.004370151847907202
4117,-0.004191115175685184
4118,0.003469205337412304
4119,0.0061954589192020435
4120,0.003865045215604955
4121,0.0034342317971696353
4122,-0.0034860745938182997
4123,0.002037026257459199
4124,5.512473168652228e-05
4125,-0.0037995060432057387
4126,-4.9460878539278955e-05
4127,0.002923987652181872
4128,-0.0007395413797110558
4129,0.0057193644099850964
4130,-0.0060653247106364355
4131,-0.00473891729877455
4132,-0.00011711323307767203
4133,0.003923928151393815
4134,-0.0022935251256827605
4135,-0.005881863094569835
4136,0.0024962202157357647
4137,-0.00566119808175344
4138,0.0026523378807184906
4139,0.002142504090110771
4140,-0.00036465670418027105
4141,0.005926619743490752
4142,0.004512117775411497
4143,-0.005041407634915775
4144,0.002466174458303728
4145,-0.0006918948715554287
4146,0.0029267887667191166
4147,0.001331658521503156
4148,-4.5154935987844896e-05
4149,-0.00010865075101230016
4150,-0.003994490250634416
4151,-0.007226663129808644
4152,-0.006913001293225514
4153,0.0024161667223418035
4154,0.0012464605532764798
4155,-0.0002387455048788855
4156,0.0031058912829763675
4157,0.005199491017337108
4158,-0.0015562876986262505
4159,-0.0015517072434640677
4160,-0.005369831210896793
4161,0.0005149942596960905
4162,0.002690431610552867
4163,0.003293830919344324
4164,-0.0007022218375115855
4165,0.0021711393500524825
4166,5.3726767704171535e-05
4167,0.0034419536234216105
4168,0.00472629719401315
4169,0.000560032172155874
4170,0.0017508581302730659
4171,-0.0034243144569408067
4172,-0.00655332325878275
4173,-0.001964514405836776
4174,0.0061910960872005845
4175,0.00017767066946080667
4176,-5.1162392724469694e-05
4177,-0.0008659237567667424
4178,-0.0009499441530307464
4179,-0.0012989236836873554
4180,-0.00576699404412711
4181,-0.003041895307398571
4182,-9.929710582027608e-05
4183,0.003122360738895648
4184,-0.002132188307918328
4185,-0.007545394942206895
4186,0.005208710316660979
4187,-0.0007093351813613237
4188,0.001089828193693092
4189,0.0032833911621258354
4190,0.0008894112306187772
4191,0.004897010624900087
4192,-0.0018700739428437422
4193,-0.0015343102767298358
4194,-0.00013681714165335486
4195,0.006794224033191905
4196,0.004480837207820129
4197,-0.00432078563372031
4198,4.637641168134254e-06
4199,6.353153519103247e-05
4200,0.001910079654350843
4201,0.0019058787874778119
4202,-0.0001374941526373595
4203,-0.0020716735957543118
4204,-0.003292382072472986
4205,-0.0012352695350706724
4206,-0.0044160810673717875
4207,0.0018795190661127972
4208,3.7770243774635365e-06
4209,-0.0016836090025084275
4210,-0.0019747889489713597
4211,-0.0029248427572392856
4212,2.698740993406154e-06
4213,0.005966015191882875
4214,0.007068728846080585
4215,-0.004937800680669086
4216,-0.005540755297524574
4217,0.002759951736847132
4218,-8.443134360078611e-05
4219,0.005805649689736443
4220,0.006701865266311184
4221,-0.008083171358334085
4222,-0.001254821940183894
4223,-0.00415299850054878
4224,-0.0005442188574148708
4225,-0.00140496137255333
4226,-0.0024045342739894785
4227,0.005131686248327822
4228,0.005511811303044542
4229,0.002349404757702473
4230,-0.005075707756741507
4231,-0.0030895884614101175
4232,-2.0377187370083233e-05
4233,0.001284777775773795
4234,-4.9431310640665055e-05
4235,-0.0011814954104406132
4236,0.0001795218968502002
4237,0.0001372619259726142
4238,-0.00425628370966373
4239,0.003628938356589055
4240,0.003030379798492513
4241,0.004235239145870623
4242,0.003650007582096491
4243,-0.0010420001085544167
4244,0.0013012521893086965
4245,-0.0013738486572447773
4246,-0.006924009628606666
4247,-0.007364650085050035
4248,0.004420193430149438
4249,0.001401207902714991
4250,-0.004728456020410325
4251,0.0018885793960647743
4252,0.0027915308155234877
4253,0.0035852847462626587
4254,0.005787163590486801
4255,0.005496366769700038
4256,0.0011632123797582486
4257,-0.005886765904087737
4258,-0.005218865032054424
4259,-0.0011450605392076003
4260,0.0011086597588369738
4261,-0.003657430877363068
4262,-0.00698797488305707
4263,-0.001199793825957465
4264,0.0014631831680163992
4265,0.006541877447201906
4266,-0.0020113479896222506
4267,-0.0016939504852469056
4268,-0.0027010655892580338
4269,-0.003014837592985377
4270,0.002417884244260848
4271,-0.0011617797377628594
4272,0.0003004652627953495
4273,-0.0019701813884739836
4274,0.004170325006781942
4275,0.009025144760298111
4276,0.004464043126598103
4277,0.0013996480640644186
4278,-0.0003678851636580629
4279,-0.004764393050004358
4280,3.1648234499458486e-05
4281,-0.0003898204418760851
4282,0.002153175460555823
4283,-0.0007252772269319176
4284,-0.0039960959688607744
4285,-0.00027764764264754
4286,-0.0019248797676730788
4287,-0.002268205682616384
4288,0.0019458007407715146
4289,-0.0008508647959774556
4290,0.0012820200253273895
4291,0.0023190509599878787
4292,0.0004192335441150913
4293,0.0013085415877004437
4294,0.0020742374875226035
4295,0.002588488009869881
4296,-0.002347063620593428
4297,0.002998146536164123
4298,-0.00226497121838361
4299,-0.0064091395303833305
4300,0.003382313568276598
4301,0.0029264846591252032
4302,-0.010958664939473995
4303,-0.005141139378414774
4304,0.002649435441693297
4305,-2.285226412109334e-05
4306,0.0021114841000113398
4307,0.0025996757007748384
4308,0.0013536839267106714
4309,0.0035020349490157343
4310,0.002812840600657075
4311,-0.003681043002206505
4312,-0.003135392105606795
4313,-0.006094924893559344
4314,-0.0004974826400559879
4315,0.002861780794762084
4316,0.00043281391644705083
4317,0.004716002207451478
4318,0.005099952164813236
4319,0.0065941744133687814
4320,0.005971199750677225
4321,-0.007707938349827621
4322,-0.0050056188002324635
4323,-0.0015180127633257282
4324,-0.001081185071957375
4325,-0.0006383040106928226
4326,-0.00584780340471178
4327,0.0005385205208418148
4328,0.003966068687963286
4329,0.004846525826975006
4330,-0.008123289148201703
4331,-0.006245786474473543
4332,0.0018674725072737527
4333,0.006828635525587541
4334,0.003340045574771019
4335,-0.0015960038921283733
4336,0.0018519017155519905
4337,-0.0010456454631348599
4338,-0.0014359066185238613
4339,0.001887654015868231
4340,-0.0008241940626296101
4341,-0.0037593489183187882
4342,-0.002060321372671252
4343,0.001074886249220872
4344,-0.00024141141361495172
4345,-0.001200671714422636
4346,-0.001154075393838631
4347,-0.008574076323008316
4348,0.006509885231432061
4349,0.011331622816745556
4350,0.0031603025373889634
4351,0.005847177236391254
4352,0.0008520117103775621
4353,-0.0002618832399538338
4354,-0.004826369359753188
4355,-0.0007221283820948634
4356,0.0020750408755169994
4357,-0.008328559152537576
4358,0.0013530775940923806
4359,0.00269919940989995
4360,-0.0001412800907532371
4361,0.0009236348595901347
4362,-0.0010007227199167624
4363,-0.00241537652150791
4364,-0.003360721557241521
4365,0.0010681893619853573
4366,0.0024659562516022044
4367,-0.00016847585331849178
4368,-0.004093886816156817
4369,-0.0024822000561126444
4370,-0.006359152191161824
4371,0.004079749541882383
4372,0.006732685753987066
4373,-0.0034091850800925397
4374,0.0015183566895026982
4375,0.002701427651398131
4376,0.007197776236697951
4377,0.004467835179984274
4378,-0.003050222998984577
4379,-0.008460991950307209
4380,-0.008906316984940862
4381,-0.003647287620853432
4382,-0.005715293961579864
4383,0.004253800045149381
4384,0.007822626525009152
4385,0.0042637911792637795
4386,0.001942360972314601
4387,-0.005175999498233695
4388,0.004099389435800812
4389,-0.000206283012328997
4390,-0.00027373477445384424
4391,-0.0018319231859512328
4392,-0.00218429530401657
4393,0.0025841379585372255
4394,0.0036730150035115833
4395,0.003942650620177651
4396,0.001097757624842724
4397,-0.0004984639305321108
4398,-0.0025102321567749683
4399,-0.002333285899311416
4400,-0.0015107967769875724
4401,0.0061857506685730436
4402,-0.006123463496602812
4403,-0.0013929628085113917
4404,0.0021800612514075272
4405,0.0012075777870460564
4406,-0.0009847500183470352
4407,0.00017188478532763427
4408,-2.708803116283423e-05
4409,-0.0005331857928614929
4410,-0.0016538993877119254
4411,-0.002948662929324485
4412,0.007237816007622674
4413,-0.0023027432158835327
4414,0.0014934482623365358
4415,-0.0036130361618433512
4416,0.007574939511191316
4417,-0.002099901394768242
4418,-0.004420531943840462
4419,-1.1666347353250783e-05
4420,-0.003154359810485765
4421,0.0035221890702216846
4422,-0.004704892497804391
4423,-0.0038314320978054296
4424,-0.0017380228189249145
4425,0.006892193514740413
4426,0.001473821508589242
4427,0.004182184860024968
4428,-0.0016847763901475087
4429,0.0023855259854162723
4430,-0.005174529642814257
4431,0.005962994401473696
4432,0.004841695567559834
4433,-0.0055941130488868
4434,0.0031825590435013446
4435,-0.0016839753196848262
4436,-0.0006089788936557879
4437,-0.0016775732597414088
4438,0.0021571345166523544
4439,-0.0018285505464229693
4440,-0.0057917392319502044
4441,0.003540728173564627
4442,0.004323886333796734
4443,-0.00435086669411656
4444,0.004735291036755034
4445,-0.0034264726781381583
4446,-0.002608434328444577
4447,-0.0018842585846892993
4448,-0.0013369072043115833
4449,-0.0007260987953445104
4450,0.004011166413674952
4451,-0.0004190615270757269
4452,0.0014200637065634007
4453,-1.846019339028608e-05
4454,-0.0024971652566188043
4455,0.0006543084324425272
4456,-0.004150375472659535
4457,0.001352806752218879
4458,0.0024154601041010016
4459,-0.003340584076499554
4460,-0.007744281600386609
4461,0.009656212233073842
4462,0.0032745118767078026
4463,0.007012963752384268
4464,-0.003210971332890552
4465,-0.004105581547431581
4466,0.006286641636681087
4467,0.0013259692609924887
4468,0.0005037129124812953
4469,-0.0051338520448511015
4470,0.00034128594146847976
4471,-0.005328957058562993
4472,-0.0017873021569696224
4473,-0.004216324593662826
4474,0.0022151254964224033
4475,0.003716412751418402
4476,0.0010133906090340553
4477,0.0027127094915427256
4478,0.0023945582480344747
4479,-0.0028659796673850373
4480,-0.0014656068847876142
