timestamp,A2
0,561
1,560
2,560
3,560
4,559
5,558
6,557
7,558
8,557
9,557
10,557
11,555
12,555
13,554
14,553
15,553
16,552
17,551
18,551
19,551
20,550
21,550
22,549
23,549
24,548
25,548
26,548
27,547
28,546
29,545
30,545
31,545
32,544
33,544
34,543
35,543
36,543
37,542
38,542
39,542
40,542
41,541
42,540
43,539
44,539
45,540
46,539
47,538
48,537
49,537
50,536
51,536
52,536
53,535
54,535
55,535
56,534
57,534
58,533
59,532
60,532
61,531
62,531
63,531
64,531
65,530
66,530
67,529
68,529
69,529
70,529
71,528
72,528
73,528
74,527
75,527
76,526
77,526
78,526
79,525
80,526
81,525
82,525
83,525
84,524
85,525
86,525
87,525
88,525
89,524
90,524
91,523
92,523
93,523
94,522
95,522
96,521
97,521
98,521
99,521
100,521
101,520
102,520
103,519
104,519
105,519
106,519
107,519
108,519
109,519
110,519
111,519
112,519
113,518
114,518
115,518
116,518
117,518
118,518
119,519
120,519
121,518
122,518
123,518
124,517
125,516
126,516
127,516
128,515
129,515
130,515
131,515
132,514
133,514
134,514
135,515
136,514
137,514
138,514
139,513
140,514
141,513
142,513
143,513
144,512
145,513
146,512
147,512
148,513
149,512
150,512
151,512
152,512
153,512
154,512
155,512
156,511
157,511
158,511
159,511
160,511
161,511
162,510
163,510
164,510
165,510
166,510
167,510
168,510
169,510
170,511
171,511
172,511
173,511
174,511
175,511
176,511
177,511
178,511
179,510
180,510
181,510
182,510
183,509
184,509
185,508
186,508
187,508
188,508
189,507
190,507
191,507
192,508
193,508
194,507
195,508
196,508
197,507
198,507
199,507
200,507
201,507
202,507
203,507
204,507
205,507
206,507
207,507
208,507
209,507
210,507
211,507
212,507
213,507
214,507
215,507
216,507
217,507
218,507
219,506
220,506
221,507
222,507
223,506
224,506
225,507
226,506
227,507
228,507
229,507
230,507
231,507
232,507
233,507
234,507
235,506
236,506
237,505
238,505
239,503
240,502
241,501
242,499
243,498
244,496
245,495
246,495
247,493
248,491
249,489
250,488
251,487
252,486
253,484
254,483
255,483
256,482
257,481
258,480
259,479
260,479
261,478
262,478
263,478
264,477
265,477
266,476
267,476
268,475
269,475
270,475
271,475
272,475
273,475
274,476
275,475
276,476
277,476
278,476
279,477
280,478
281,478
282,479
283,479
284,479
285,480
286,481
287,482
288,482
289,483
290,485
291,486
292,487
293,488
294,489
295,491
296,492
297,493
298,495
299,496
300,496
301,497
302,499
303,500
304,501
305,503
306,504
307,506
308,507
309,508
310,510
311,512
312,513
313,515
314,516
315,518
316,519
317,519
318,520
319,520
320,521
321,520
322,520
323,520
324,520
325,521
326,521
327,521
328,520
329,519
330,519
331,519
332,519
333,519
334,519
335,519
336,519
337,519
338,519
339,519
340,519
341,518
342,518
343,518
344,518
345,518
346,518
347,518
348,517
349,516
350,516
351,516
352,516
353,516
354,516
355,516
356,516
357,517
358,516
359,516
360,516
361,516
362,516
363,516
364,515
365,516
366,515
367,515
368,515
369,514
370,515
371,514
372,514
373,514
374,514
375,515
376,514
377,514
378,514
379,514
380,513
381,513
382,513
383,512
384,512
385,512
386,512
387,512
388,513
389,513
390,512
391,512
392,512
393,512
394,512
395,511
396,511
397,513
398,515
399,519
400,524
401,528
402,532
403,537
404,541
405,546
406,550
407,556
408,559
409,555
410,550
411,539
412,531
413,517
414,505
415,490
416,478
417,461
418,447
419,430
420,416
421,399
422,386
423,369
424,355
425,339
426,326
427,310
428,297
429,281
430,268
431,253
432,242
433,234
434,230
435,227
436,225
437,234
438,243
439,259
440,272
441,291
442,307
443,327
444,346
445,368
446,386
447,408
448,427
449,449
450,469
451,491
452,508
453,529
454,547
455,569
456,585
457,606
458,622
459,643
460,657
461,663
462,667
463,665
464,661
465,654
466,648
467,639
468,631
469,620
470,610
471,598
472,588
473,581
474,575
475,571
476,567
477,563
478,560
479,559
480,557
481,555
482,553
483,552
484,551
485,551
486,550
487,549
488,548
489,547
490,547
491,546
492,546
493,545
494,544
495,544
496,543
497,543
498,542
499,541
500,540
501,540
502,539
503,539
504,538
505,537
506,537
507,536
508,536
509,535
510,534
511,534
512,534
513,533
514,532
515,531
516,530
517,530
518,530
519,529
520,528
521,528
522,528
523,527
524,527
525,526
526,526
527,525
528,524
529,523
530,522
531,521
532,521
533,520
534,520
535,519
536,519
537,519
538,518
539,517
540,516
541,515
542,515
543,514
544,513
545,512
546,511
547,511
548,510
549,509
550,509
551,508
552,508
553,508
554,508
555,507
556,507
557,506
558,505
559,505
560,505
561,503
562,503
563,503
564,502
565,502
566,501
567,500
568,500
569,499
570,499
571,498
572,497
573,497
574,497
575,497
576,496
577,496
578,496
579,495
580,495
581,494
582,495
583,494
584,493
585,493
586,492
587,492
588,492
589,492
590,492
591,492
592,491
593,491
594,491
595,489
596,489
597,489
598,490
599,489
600,489
601,489
602,489
603,489
604,488
605,488
606,488
607,487
608,487
609,487
610,487
611,487
612,486
613,485
614,485
615,485
616,485
617,484
618,484
619,484
620,484
621,484
622,484
623,483
624,483
625,483
626,482
627,483
628,482
629,482
630,483
631,483
632,483
633,483
634,483
635,484
636,484
637,483
638,483
639,482
640,482
641,480
642,480
643,478
644,477
645,476
646,476
647,474
648,473
649,472
650,471
651,470
652,470
653,469
654,469
655,469
656,468
657,468
658,468
659,467
660,468
661,467
662,467
663,467
664,465
665,465
666,465
667,464
668,464
669,465
670,466
671,467
672,468
673,470
674,472
675,474
676,475
677,477
678,479
679,481
680,483
681,485
682,487
683,489
684,490
685,492
686,493
687,494
688,495
689,496
690,497
691,497
692,499
693,500
694,501
695,502
696,504
697,504
698,505
699,506
700,508
701,509
702,511
703,513
704,515
705,518
706,521
707,524
708,527
709,530
710,534
711,538
712,540
713,544
714,547
715,550
716,552
717,554
718,556
719,558
720,559
721,560
722,561
723,561
724,563
725,564
726,565
727,567
728,567
729,568
730,568
731,569
732,570
733,570
734,569
735,570
736,569
737,569
738,569
739,568
740,567
741,566
742,565
743,564
744,564
745,564
746,563
747,562
748,561
749,560
750,560
751,560
752,559
753,558
754,558
755,557
756,556
757,555
758,554
759,554
760,553
761,553
762,552
763,552
764,551
765,552
766,551
767,551
768,551
769,550
770,549
771,549
772,548
773,548
774,547
775,547
776,547
777,547
778,546
779,546
780,546
781,545
782,544
783,543
784,543
785,542
786,542
787,542
788,541
789,540
790,540
791,540
792,540
793,539
794,538
795,538
796,537
797,537
798,536
799,535
800,535
801,534
802,534
803,534
804,534
805,533
806,532
807,532
808,533
809,532
810,532
811,531
812,531
813,531
814,531
815,531
816,529
817,528
818,528
819,528
820,528
821,527
822,527
823,527
824,527
825,527
826,526
827,526
828,525
829,525
830,525
831,524
832,524
833,524
834,523
835,523
836,523
837,522
838,522
839,522
840,522
841,522
842,523
843,522
844,521
845,521
846,521
847,521
848,521
849,520
850,520
851,520
852,519
853,519
854,519
855,519
856,519
857,519
858,519
859,518
860,519
861,519
862,518
863,518
864,518
865,518
866,517
867,517
868,517
869,517
870,517
871,517
872,517
873,517
874,517
875,517
876,517
877,516
878,516
879,516
880,515
881,515
882,515
883,514
884,513
885,513
886,513
887,513
888,513
889,513
890,514
891,513
892,513
893,513
894,512
895,513
896,512
897,512
898,512
899,512
900,512
901,511
902,511
903,511
904,511
905,511
906,511
907,511
908,511
909,511
910,512
911,512
912,512
913,512
914,511
915,511
916,511
917,511
918,511
919,511
920,511
921,511
922,511
923,511
924,511
925,510
926,510
927,510
928,510
929,509
930,510
931,509
932,509
933,508
934,508
935,508
936,507
937,507
938,507
939,507
940,508
941,508
942,508
943,508
944,508
945,508
946,508
947,508
948,508
949,508
950,508
951,507
952,507
953,508
954,507
955,508
956,508
957,508
958,508
959,508
960,508
961,508
962,509
963,509
964,509
965,509
966,508
967,508
968,508
969,508
970,508
971,507
972,508
973,508
974,507
975,508
976,507
977,507
978,507
979,507
980,507
981,507
982,507
983,506
984,505
985,504
986,503
987,501
988,499
989,497
990,496
991,494
992,493
993,492
994,490
995,489
996,487
997,486
998,484
999,483
1000,483
1001,481
1002,480
1003,480
1004,480
1005,480
1006,479
1007,478
1008,477
1009,476
1010,476
1011,475
1012,475
1013,475
1014,474
1015,474
1016,473
1017,473
1018,474
1019,473
1020,474
1021,474
1022,475
1023,476
1024,476
1025,476
1026,476
1027,476
1028,476
1029,476
1030,476
1031,477
1032,478
1033,479
1034,479
1035,480
1036,481
1037,483
1038,484
1039,484
1040,486
1041,487
1042,488
1043,488
1044,489
1045,491
1046,492
1047,493
1048,494
1049,496
1050,497
1051,499
1052,501
1053,503
1054,504
1055,506
1056,508
1057,510
1058,512
1059,513
1060,515
1061,516
1062,517
1063,519
1064,519
1065,519
1066,520
1067,521
1068,520
1069,520
1070,521
1071,521
1072,521
1073,521
1074,520
1075,520
1076,521
1077,520
1078,520
1079,519
1080,519
1081,519
1082,518
1083,518
1084,518
1085,519
1086,519
1087,519
1088,518
1089,518
1090,518
1091,518
1092,518
1093,517
1094,518
1095,518
1096,516
1097,517
1098,516
1099,516
1100,516
1101,516
1102,517
1103,516
1104,516
1105,516
1106,516
1107,515
1108,515
1109,515
1110,515
1111,515
1112,515
1113,514
1114,514
1115,514
1116,514
1117,513
1118,513
1119,513
1120,513
1121,513
1122,513
1123,513
1124,512
1125,513
1126,513
1127,512
1128,512
1129,512
1130,512
1131,512
1132,512
1133,512
1134,512
1135,512
1136,512
1137,512
1138,512
1139,512
1140,512
1141,512
1142,512
1143,514
1144,516
1145,519
1146,523
1147,528
1148,532
1149,537
1150,542
1151,547
1152,551
1153,556
1154,558
1155,554
1156,550
1157,539
1158,530
1159,516
1160,504
1161,488
1162,476
1163,459
1164,444
1165,428
1166,415
1167,399
1168,385
1169,368
1170,354
1171,338
1172,326
1173,310
1174,297
1175,281
1176,269
1177,254
1178,243
1179,236
1180,231
1181,228
1182,227
1183,236
1184,245
1185,260
1186,273
1187,292
1188,309
1189,329
1190,348
1191,369
1192,387
1193,409
1194,427
1195,450
1196,467
1197,488
1198,506
1199,524
1200,544
1201,567
1202,584
1203,605
1204,621
1205,643
1206,658
1207,664
1208,668
1209,665
1210,663
1211,655
1212,649
1213,640
1214,632
1215,620
1216,611
1217,599
1218,589
1219,582
1220,576
1221,572
1222,568
1223,566
1224,563
1225,561
1226,559
1227,557
1228,555
1229,554
1230,553
1231,552
1232,551
1233,550
1234,549
1235,548
1236,547
1237,545
1238,544
1239,544
1240,544
1241,543
1242,543
1243,543
1244,542
1245,541
1246,540
1247,540
1248,539
1249,539
1250,539
1251,538
1252,538
1253,538
1254,537
1255,537
1256,536
1257,535
1258,534
1259,533
1260,533
1261,532
1262,532
1263,531
1264,531
1265,530
1266,529
1267,528
1268,528
1269,527
1270,527
1271,527
1272,526
1273,524
1274,523
1275,523
1276,523
1277,522
1278,521
1279,520
1280,519
1281,519
1282,519
1283,518
1284,517
1285,517
1286,516
1287,516
1288,515
1289,515
1290,514
1291,513
1292,513
1293,512
1294,512
1295,512
1296,511
1297,510
1298,509
1299,508
1300,508
1301,508
1302,508
1303,507
1304,507
1305,507
1306,506
1307,506
1308,506
1309,505
1310,504
1311,504
1312,504
1313,504
1314,503
1315,503
1316,503
1317,502
1318,502
1319,501
1320,500
1321,500
1322,500
1323,499
1324,499
1325,499
1326,498
1327,497
1328,497
1329,497
1330,496
1331,496
1332,495
1333,495
1334,494
1335,494
1336,493
1337,493
1338,493
1339,492
1340,492
1341,492
1342,492
1343,492
1344,491
1345,492
1346,491
1347,491
1348,491
1349,490
1350,491
1351,490
1352,489
1353,489
1354,488
1355,487
1356,487
1357,487
1358,487
1359,486
1360,486
1361,485
1362,486
1363,485
1364,484
1365,484
1366,484
1367,484
1368,484
1369,484
1370,484
1371,483
1372,484
1373,484
1374,484
1375,485
1376,484
1377,485
1378,484
1379,484
1380,483
1381,483
1382,483
1383,482
1384,481
1385,480
1386,480
1387,479
1388,478
1389,478
1390,477
1391,476
1392,476
1393,474
1394,474
1395,473
1396,472
1397,470
1398,469
1399,469
1400,469
1401,468
1402,468
1403,468
1404,468
1405,468
1406,468
1407,468
1408,467
1409,467
1410,467
1411,466
1412,466
1413,465
1414,466
1415,467
1416,467
1417,467
1418,469
1419,470
1420,472
1421,473
1422,475
1423,476
1424,477
1425,480
1426,481
1427,483
1428,485
1429,486
1430,488
1431,490
1432,491
1433,492
1434,493
1435,495
1436,496
1437,496
1438,498
1439,499
1440,500
1441,501
1442,502
1443,503
1444,503
1445,504
1446,505
1447,508
1448,510
1449,513
1450,515
1451,519
1452,521
1453,525
1454,527
1455,531
1456,534
1457,537
1458,540
1459,543
1460,546
1461,549
1462,552
1463,555
1464,556
1465,558
1466,559
1467,560
1468,562
1469,562
1470,563
1471,564
1472,565
1473,566
1474,566
1475,567
1476,568
1477,568
1478,568
1479,568
1480,568
1481,568
1482,568
1483,568
1484,567
1485,567
1486,566
1487,566
1488,565
1489,564
1490,563
1491,563
1492,563
1493,562
1494,561
1495,560
1496,560
1497,559
1498,559
1499,558
1500,558
1501,557
1502,556
1503,555
1504,554
1505,554
1506,553
1507,553
1508,552
1509,551
1510,551
1511,551
1512,551
1513,550
1514,550
1515,549
1516,548
1517,548
1518,548
1519,547
1520,547
1521,546
1522,546
1523,545
1524,545
1525,544
1526,544
1527,543
1528,543
1529,542
1530,541
1531,540
1532,540
1533,540
1534,539
1535,539
1536,539
1537,539
1538,538
1539,538
1540,538
1541,537
1542,537
1543,536
1544,536
1545,536
1546,536
1547,535
1548,534
1549,534
1550,533
1551,533
1552,532
1553,532
1554,532
1555,532
1556,531
1557,531
1558,530
1559,529
1560,529
1561,529
1562,529
1563,529
1564,528
1565,528
1566,527
1567,527
1568,527
1569,527
1570,526
1571,526
1572,526
1573,525
1574,524
1575,525
1576,524
1577,524
1578,525
1579,524
1580,524
1581,524
1582,524
1583,524
1584,523
1585,524
1586,523
1587,523
1588,524
1589,522
1590,523
1591,522
1592,522
1593,521
1594,521
1595,520
1596,520
1597,519
1598,519
1599,519
1600,518
1601,517
1602,518
1603,518
1604,517
1605,517
1606,517
1607,517
1608,517
1609,516
1610,517
1611,517
1612,517
1613,516
1614,516
1615,515
1616,515
1617,515
1618,515
1619,514
1620,515
1621,514
1622,515
1623,515
1624,515
1625,515
1626,515
1627,515
1628,515
1629,514
1630,514
1631,515
1632,515
1633,514
1634,514
1635,513
1636,513
1637,513
1638,512
1639,512
1640,512
1641,512
1642,511
1643,511
1644,511
1645,511
1646,511
1647,511
1648,511
1649,511
1650,511
1651,511
1652,511
1653,511
1654,511
1655,512
1656,512
1657,512
1658,511
1659,511
1660,510
1661,510
1662,510
1663,510
1664,509
1665,510
1666,510
1667,510
1668,510
1669,509
1670,510
1671,510
1672,510
1673,510
1674,510
1675,510
1676,509
1677,509
1678,509
1679,509
1680,509
1681,509
1682,508
1683,508
1684,508
1685,508
1686,508
1687,508
1688,508
1689,507
1690,507
1691,507
1692,507
1693,507
1694,507
1695,507
1696,506
1697,506
1698,507
1699,507
1700,507
1701,506
1702,506
1703,506
1704,505
1705,506
1706,506
1707,505
1708,506
1709,507
1710,507
1711,507
1712,507
1713,508
1714,508
1715,508
1716,508
1717,508
1718,507
1719,507
1720,507
1721,507
1722,507
1723,506
1724,506
1725,506
1726,506
1727,506
1728,505
1729,504
1730,504
1731,503
1732,501
1733,500
1734,499
1735,497
1736,496
1737,495
1738,493
1739,492
1740,491
1741,489
1742,488
1743,487
1744,486
1745,484
1746,483
1747,483
1748,482
1749,481
1750,480
1751,479
1752,479
1753,479
1754,478
1755,477
1756,476
1757,476
1758,476
1759,475
1760,474
1761,474
1762,474
1763,474
1764,473
1765,474
1766,474
1767,474
1768,474
1769,475
1770,476
1771,475
1772,476
1773,476
1774,476
1775,477
1776,476
1777,477
1778,478
1779,479
1780,479
1781,481
1782,482
1783,483
1784,484
1785,486
1786,486
1787,487
1788,488
1789,489
1790,491
1791,492
1792,493
1793,495
1794,495
1795,497
1796,498
1797,500
1798,503
1799,504
1800,505
1801,507
1802,508
1803,510
1804,511
1805,513
1806,514
1807,516
1808,517
1809,517
1810,518
1811,518
1812,519
1813,519
1814,519
1815,520
1816,519
1817,519
1818,520
1819,520
1820,520
1821,520
1822,520
1823,520
1824,519
1825,519
1826,518
1827,518
1828,518
1829,517
1830,517
1831,517
1832,518
1833,517
1834,517
1835,517
1836,517
1837,517
1838,516
1839,516
1840,515
1841,515
1842,515
1843,515
1844,515
1845,515
1846,516
1847,516
1848,516
1849,515
1850,516
1851,516
1852,516
1853,515
1854,515
1855,515
1856,514
1857,515
1858,515
1859,514
1860,515
1861,515
1862,515
1863,515
1864,514
1865,515
1866,514
1867,514
1868,514
1869,514
1870,514
1871,514
1872,513
1873,514
1874,513
1875,513
1876,513
1877,513
1878,513
1879,513
1880,513
1881,513
1882,513
1883,513
1884,512
1885,512
1886,512
1887,511
1888,512
1889,514
1890,516
1891,520
1892,524
1893,528
1894,532
1895,538
1896,542
1897,546
1898,551
1899,556
1900,560
1901,555
1902,551
1903,541
1904,530
1905,517
1906,505
1907,489
1908,476
1909,459
1910,446
1911,429
1912,416
1913,399
1914,385
1915,368
1916,355
1917,339
1918,326
1919,310
1920,297
1921,281
1922,270
1923,254
1924,243
1925,235
1926,230
1927,227
1928,227
1929,236
1930,245
1931,260
1932,273
1933,292
1934,307
1935,329
1936,346
1937,368
1938,387
1939,410
1940,429
1941,451
1942,470
1943,492
1944,509
1945,531
1946,548
1947,568
1948,586
1949,607
1950,624
1951,644
1952,658
1953,664
1954,668
1955,665
1956,662
1957,655
1958,647
1959,639
1960,630
1961,619
1962,609
1963,598
1964,588
1965,581
1966,575
1967,570
1968,566
1969,563
1970,561
1971,558
1972,556
1973,555
1974,554
1975,553
1976,552
1977,551
1978,550
1979,549
1980,548
1981,547
1982,547
1983,546
1984,545
1985,545
1986,544
1987,543
1988,543
1989,541
1990,541
1991,540
1992,540
1993,539
1994,539
1995,539
1996,538
1997,538
1998,537
1999,537
2000,536
2001,536
2002,536
2003,535
2004,535
2005,534
2006,533
2007,533
2008,532
2009,531
2010,531
2011,529
2012,529
2013,529
2014,529
2015,528
2016,527
2017,526
2018,526
2019,526
2020,525
2021,525
2022,525
2023,524
2024,523
2025,523
2026,521
2027,521
2028,520
2029,519
2030,519
2031,518
2032,518
2033,517
2034,516
2035,515
2036,514
2037,514
2038,513
2039,512
2040,512
2041,511
2042,511
2043,510
2044,509
2045,508
2046,508
2047,507
2048,507
2049,507
2050,506
2051,505
2052,505
2053,504
2054,503
2055,503
2056,502
2057,502
2058,502
2059,501
2060,501
2061,500
2062,500
2063,500
2064,499
2065,499
2066,498
2067,497
2068,496
2069,496
2070,496
2071,496
2072,496
2073,496
2074,495
2075,495
2076,494
2077,494
2078,493
2079,493
2080,492
2081,493
2082,493
2083,492
2084,492
2085,492
2086,491
2087,491
2088,492
2089,492
2090,492
2091,491
2092,491
2093,491
2094,490
2095,490
2096,490
2097,489
2098,489
2099,488
2100,487
2101,487
2102,487
2103,488
2104,487
2105,487
2106,487
2107,486
2108,486
2109,485
2110,485
2111,484
2112,483
2113,483
2114,483
2115,483
2116,483
2117,483
2118,483
2119,483
2120,483
2121,483
2122,483
2123,483
2124,483
2125,483
2126,484
2127,484
2128,484
2129,483
2130,483
2131,481
2132,481
2133,480
2134,480
2135,479
2136,479
2137,477
2138,476
2139,475
2140,474
2141,472
2142,472
2143,471
2144,469
2145,469
2146,468
2147,468
2148,467
2149,467
2150,466
2151,465
2152,465
2153,465
2154,464
2155,465
2156,465
2157,465
2158,465
2159,465
2160,465
2161,466
2162,467
2163,468
2164,470
2165,471
2166,472
2167,474
2168,475
2169,477
2170,479
2171,481
2172,482
2173,484
2174,486
2175,488
2176,490
2177,492
2178,493
2179,494
2180,496
2181,497
2182,497
2183,499
2184,499
2185,502
2186,503
2187,504
2188,505
2189,505
2190,506
2191,508
2192,508
2193,510
2194,512
2195,514
2196,516
2197,519
2198,523
2199,526
2200,528
2201,531
2202,534
2203,537
2204,540
2205,544
2206,547
2207,550
2208,552
2209,555
2210,556
2211,558
2212,559
2213,560
2214,560
2215,561
2216,561
2217,562
2218,563
2219,564
2220,566
2221,566
2222,567
2223,568
2224,568
2225,568
2226,568
2227,568
2228,568
2229,567
2230,567
2231,567
2232,566
2233,566
2234,565
2235,565
2236,564
2237,564
2238,563
2239,563
2240,562
2241,561
2242,561
2243,560
2244,559
2245,559
2246,558
2247,558
2248,557
2249,555
2250,555
2251,553
2252,553
2253,553
2254,552
2255,552
2256,551
2257,551
2258,551
2259,550
2260,550
2261,549
2262,548
2263,548
2264,547
2265,547
2266,546
2267,546
2268,546
2269,545
2270,545
2271,544
2272,544
2273,544
2274,543
2275,543
2276,543
2277,542
2278,541
2279,541
2280,541
2281,540
2282,539
2283,539
2284,538
2285,539
2286,538
2287,539
2288,538
2289,538
2290,538
2291,537
2292,537
2293,536
2294,536
2295,536
2296,536
2297,535
2298,535
2299,534
2300,534
2301,532
2302,532
2303,532
2304,531
2305,531
2306,531
2307,531
2308,530
2309,529
2310,528
2311,528
2312,527
2313,527
2314,527
2315,528
2316,527
2317,527
2318,526
2319,526
2320,525
2321,525
2322,525
2323,525
2324,525
2325,526
2326,525
2327,525
2328,524
2329,524
2330,524
2331,523
2332,523
2333,523
2334,523
2335,523
2336,521
2337,521
2338,522
2339,522
2340,521
2341,520
2342,520
2343,520
2344,519
2345,519
2346,519
2347,519
2348,519
2349,519
2350,518
2351,518
2352,518
2353,517
2354,518
2355,518
2356,517
2357,517
2358,516
2359,516
2360,516
2361,516
2362,515
2363,515
2364,515
2365,514
2366,515
2367,515
2368,515
2369,514
2370,514
2371,514
2372,514
2373,513
2374,513
2375,513
2376,513
2377,513
2378,513
2379,512
2380,512
2381,512
2382,512
2383,512
2384,511
2385,511
2386,511
2387,511
2388,511
2389,512
2390,512
2391,512
2392,512
2393,512
2394,512
2395,512
2396,512
2397,511
2398,512
2399,512
2400,512
2401,511
2402,512
2403,512
2404,512
2405,512
2406,512
2407,511
2408,511
2409,511
2410,511
2411,511
2412,511
2413,511
2414,511
2415,511
2416,511
2417,510
2418,510
2419,510
2420,510
2421,509
2422,509
2423,509
2424,509
2425,509
2426,509
2427,509
2428,508
2429,509
2430,510
2431,509
2432,509
2433,509
2434,508
2435,508
2436,508
2437,507
2438,507
2439,507
2440,508
2441,508
2442,508
2443,507
2444,507
2445,507
2446,507
2447,507
2448,506
2449,507
2450,507
2451,507
2452,506
2453,506
2454,505
2455,506
2456,506
2457,506
2458,507
2459,507
2460,508
2461,508
2462,508
2463,507
2464,506
2465,507
2466,507
2467,506
2468,506
2469,506
2470,505
2471,505
2472,505
2473,505
2474,505
2475,505
2476,504
2477,503
2478,502
2479,500
2480,499
2481,498
2482,497
2483,495
2484,494
2485,493
2486,492
2487,489
2488,487
2489,486
2490,484
2491,483
2492,483
2493,481
2494,480
2495,480
2496,480
2497,479
2498,478
2499,477
2500,477
2501,476
2502,476
2503,475
2504,474
2505,473
2506,473
2507,473
2508,474
2509,473
2510,473
2511,474
2512,474
2513,474
2514,475
2515,475
2516,476
2517,476
2518,476
2519,477
2520,478
2521,478
2522,478
2523,480
2524,480
2525,480
2526,481
2527,483
2528,484
2529,484
2530,485
2531,485
2532,487
2533,487
2534,489
2535,491
2536,491
2537,492
2538,493
2539,494
2540,495
2541,496
2542,497
2543,499
2544,500
2545,503
2546,504
2547,506
2548,508
2549,510
2550,512
2551,514
2552,515
2553,517
2554,518
2555,520
2556,521
2557,521
2558,521
2559,521
2560,521
2561,521
2562,521
2563,520
2564,521
2565,521
2566,521
2567,520
2568,520
2569,520
2570,520
2571,519
2572,519
2573,519
2574,519
2575,519
2576,518
2577,519
2578,519
2579,518
2580,517
2581,517
2582,518
2583,518
2584,518
2585,518
2586,518
2587,518
2588,517
2589,517
2590,517
2591,517
2592,515
2593,515
2594,515
2595,516
2596,516
2597,516
2598,516
2599,515
2600,515
2601,515
2602,515
2603,515
2604,514
2605,514
2606,514
2607,514
2608,514
2609,515
2610,515
2611,514
2612,513
2613,513
2614,513
2615,513
2616,513
2617,513
2618,513
2619,513
2620,513
2621,513
2622,513
2623,513
2624,512
2625,512
2626,512
2627,512
2628,512
2629,512
2630,512
2631,512
2632,512
2633,512
2634,512
2635,515
2636,516
2637,520
2638,524
2639,528
2640,533
2641,539
2642,543
2643,547
2644,552
2645,557
2646,561
2647,557
2648,551
2649,540
2650,531
2651,516
2652,505
2653,490
2654,477
2655,460
2656,447
2657,430
2658,416
2659,399
2660,385
2661,368
2662,356
2663,340
2664,327
2665,311
2666,299
2667,283
2668,270
2669,254
2670,243
2671,236
2672,230
2673,227
2674,227
2675,237
2676,244
2677,259
2678,273
2679,292
2680,309
2681,330
2682,347
2683,368
2684,386
2685,408
2686,426
2687,449
2688,468
2689,491
2690,510
2691,531
2692,548
2693,569
2694,586
2695,608
2696,624
2697,644
2698,659
2699,664
2700,667
2701,664
2702,662
2703,655
2704,647
2705,638
2706,630
2707,619
2708,609
2709,597
2710,587
2711,580
2712,574
2713,569
2714,565
2715,563
2716,560
2717,558
2718,556
2719,554
2720,553
2721,551
2722,550
2723,550
2724,549
2725,549
2726,548
2727,547
2728,547
2729,546
2730,545
2731,544
2732,543
2733,542
2734,542
2735,542
2736,541
2737,540
2738,540
2739,539
2740,539
2741,539
2742,538
2743,538
2744,537
2745,537
2746,536
2747,536
2748,536
2749,534
2750,534
2751,532
2752,531
2753,530
2754,529
2755,529
2756,528
2757,527
2758,527
2759,526
2760,526
2761,526
2762,526
2763,524
2764,524
2765,524
2766,523
2767,523
2768,521
2769,520
2770,519
2771,519
2772,518
2773,518
2774,517
2775,517
2776,517
2777,516
2778,515
2779,515
2780,514
2781,513
2782,512
2783,512
2784,510
2785,510
2786,509
2787,509
2788,508
2789,508
2790,508
2791,507
2792,507
2793,506
2794,505
2795,505
2796,504
2797,504
2798,503
2799,502
2800,501
2801,501
2802,501
2803,501
2804,500
2805,500
2806,500
2807,499
2808,499
2809,499
2810,499
2811,499
2812,499
2813,498
2814,498
2815,498
2816,497
2817,496
2818,497
2819,496
2820,496
2821,495
2822,494
2823,494
2824,492
2825,492
2826,492
2827,492
2828,492
2829,491
2830,491
2831,491
2832,491
2833,491
2834,491
2835,491
2836,490
2837,490
2838,489
2839,489
2840,489
2841,489
2842,489
2843,489
2844,489
2845,488
2846,488
2847,487
2848,487
2849,487
2850,487
2851,486
2852,486
2853,486
2854,485
2855,485
2856,484
2857,484
2858,483
2859,484
2860,483
2861,483
2862,483
2863,483
2864,483
2865,483
2866,483
2867,483
2868,483
2869,483
2870,483
2871,483
2872,483
2873,483
2874,483
2875,483
2876,482
2877,481
2878,481
2879,480
2880,479
2881,478
2882,478
2883,477
2884,476
2885,475
2886,474
2887,472
2888,472
2889,471
2890,470
2891,469
2892,470
2893,469
2894,468
2895,468
2896,468
2897,468
2898,467
2899,467
2900,467
2901,465
2902,465
2903,465
2904,465
2905,464
2906,464
2907,465
2908,467
2909,468
2910,469
2911,472
2912,473
2913,475
2914,476
2915,478
2916,480
2917,481
2918,482
2919,484
2920,486
2921,487
2922,489
2923,491
2924,492
2925,494
2926,495
2927,497
2928,497
2929,497
2930,498
2931,499
2932,500
2933,501
2934,502
2935,504
2936,505
2937,506
2938,507
2939,508
2940,511
2941,513
2942,515
2943,519
2944,521
2945,525
2946,527
2947,531
2948,534
2949,537
2950,540
2951,543
2952,546
2953,549
2954,551
2955,553
2956,556
2957,558
2958,559
2959,561
2960,562
2961,563
2962,564
2963,565
2964,565
2965,566
2966,567
2967,568
2968,568
2969,569
2970,570
2971,570
2972,569
2973,568
2974,568
2975,568
2976,568
2977,568
2978,567
2979,567
2980,566
2981,565
2982,565
2983,564
2984,563
2985,563
2986,562
2987,562
2988,561
2989,560
2990,560
2991,559
2992,558
2993,558
2994,557
2995,556
2996,555
2997,555
2998,555
2999,554
3000,555
3001,554
3002,553
3003,553
3004,552
3005,552
3006,552
3007,551
3008,550
3009,549
3010,548
3011,547
3012,547
3013,547
3014,546
3015,546
3016,545
3017,545
3018,544
3019,543
3020,543
3021,543
3022,542
3023,542
3024,541
3025,540
3026,540
3027,539
3028,539
3029,539
3030,538
3031,537
3032,537
3033,536
3034,536
3035,535
3036,536
3037,536
3038,536
3039,535
3040,534
3041,534
3042,534
3043,534
3044,533
3045,533
3046,533
3047,533
3048,532
3049,532
3050,532
3051,531
3052,531
3053,530
3054,529
3055,530
3056,529
3057,529
3058,529
3059,528
3060,528
3061,527
3062,528
3063,527
3064,527
3065,527
3066,527
3067,526
3068,526
3069,525
3070,525
3071,524
3072,524
3073,524
3074,524
3075,524
3076,524
3077,524
3078,524
3079,523
3080,523
3081,523
3082,523
3083,523
3084,522
3085,522
3086,521
3087,521
3088,520
3089,520
3090,519
3091,519
3092,519
3093,519
3094,518
3095,518
3096,518
3097,518
3098,517
3099,516
3100,516
3101,517
3102,517
3103,517
3104,516
3105,516
3106,516
3107,517
3108,516
3109,516
3110,516
3111,517
3112,516
3113,516
3114,516
3115,516
3116,515
3117,515
3118,515
3119,515
3120,514
3121,513
3122,513
3123,513
3124,513
3125,512
3126,513
3127,513
3128,512
3129,512
3130,513
3131,512
3132,512
3133,512
3134,512
3135,512
3136,512
3137,511
3138,511
3139,511
3140,512
3141,511
3142,511
3143,511
3144,512
3145,512
3146,511
3147,511
3148,511
3149,511
3150,511
3151,510
3152,510
3153,510
3154,510
3155,510
3156,509
3157,510
3158,510
3159,510
3160,510
3161,510
3162,510
3163,510
3164,509
3165,510
3166,509
3167,509
3168,508
3169,508
3170,508
3171,508
3172,508
3173,508
3174,508
3175,509
3176,508
3177,508
3178,508
3179,507
3180,508
3181,508
3182,508
3183,508
3184,508
3185,508
3186,508
3187,507
3188,507
3189,506
3190,507
3191,507
3192,508
3193,508
3194,508
3195,507
3196,506
3197,506
3198,506
3199,506
3200,505
3201,506
3202,507
3203,507
3204,507
3205,507
3206,506
3207,506
3208,506
3209,506
3210,507
3211,506
3212,506
3213,506
3214,506
3215,507
3216,506
3217,505
3218,505
3219,505
3220,505
3221,504
3222,504
3223,502
3224,502
3225,500
3226,499
3227,498
3228,496
3229,494
3230,493
3231,491
3232,490
3233,488
3234,487
3235,485
3236,484
3237,483
3238,482
3239,481
3240,480
3241,480
3242,479
3243,478
3244,478
3245,477
3246,477
3247,476
3248,475
3249,475
3250,475
3251,474
3252,474
3253,474
3254,474
3255,474
3256,474
3257,475
3258,475
3259,475
3260,476
3261,476
3262,476
3263,477
3264,476
3265,476
3266,477
3267,478
3268,478
3269,478
3270,479
3271,480
3272,481
3273,482
3274,483
3275,483
3276,485
3277,486
3278,487
3279,487
3280,488
3281,489
3282,491
3283,492
3284,493
3285,495
3286,495
3287,496
3288,498
3289,499
3290,501
3291,503
3292,504
3293,506
3294,508
3295,510
3296,511
3297,512
3298,514
3299,516
3300,517
3301,519
3302,520
3303,521
3304,521
3305,521
3306,521
3307,520
3308,520
3309,520
3310,520
3311,520
3312,519
3313,519
3314,519
3315,519
3316,518
3317,518
3318,518
3319,518
3320,518
3321,518
3322,517
3323,517
3324,517
3325,517
3326,517
3327,516
3328,516
3329,516
3330,516
3331,516
3332,516
3333,517
3334,517
3335,518
3336,517
3337,517
3338,517
3339,516
3340,517
3341,517
3342,517
3343,516
3344,515
3345,516
3346,515
3347,516
3348,516
3349,516
3350,516
3351,515
3352,515
3353,515
3354,514
3355,514
3356,514
3357,514
3358,513
3359,514
3360,514
3361,514
3362,514
3363,513
3364,513
3365,513
3366,513
3367,513
3368,513
3369,512
3370,513
3371,513
3372,513
3373,513
3374,513
3375,513
3376,512
3377,513
3378,513
3379,513
3380,513
3381,516
3382,518
3383,522
3384,525
3385,530
3386,533
3387,538
3388,542
3389,547
3390,552
3391,557
3392,561
3393,556
3394,551
3395,540
3396,531
3397,517
3398,506
3399,490
3400,477
3401,460
3402,448
3403,430
3404,416
3405,400
3406,387
3407,370
3408,356
3409,339
3410,326
3411,310
3412,298
3413,282
3414,270
3415,254
3416,243
3417,235
3418,230
3419,227
3420,228
3421,237
3422,244
3423,260
3424,274
3425,293
3426,308
3427,329
3428,348
3429,369
3430,388
3431,411
3432,428
3433,450
3434,469
3435,490
3436,508
3437,528
3438,546
3439,568
3440,585
3441,606
3442,622
3443,642
3444,656
3445,663
3446,668
3447,665
3448,662
3449,655
3450,649
3451,639
3452,631
3453,620
3454,609
3455,598
3456,588
3457,580
3458,575
3459,571
3460,567
3461,564
3462,562
3463,560
3464,557
3465,556
3466,554
3467,552
3468,552
3469,551
3470,550
3471,549
3472,549
3473,548
3474,547
3475,546
3476,545
3477,545
3478,543
3479,542
3480,542
3481,541
3482,541
3483,540
3484,540
3485,540
3486,539
3487,539
3488,538
3489,537
3490,536
3491,536
3492,536
3493,535
3494,535
3495,534
3496,532
3497,532
3498,532
3499,531
3500,529
3501,528
3502,528
3503,528
3504,528
3505,527
3506,527
3507,526
3508,526
3509,525
3510,525
3511,524
3512,523
3513,522
3514,522
3515,522
3516,521
3517,520
3518,520
3519,520
3520,520
3521,519
3522,519
3523,518
3524,516
3525,516
3526,515
3527,515
3528,514
3529,513
3530,513
3531,512
3532,512
3533,511
3534,510
3535,510
3536,508
3537,508
3538,507
3539,506
3540,506
3541,505
3542,505
3543,505
3544,504
3545,504
3546,504
3547,503
3548,504
3549,503
3550,502
3551,502
3552,502
3553,501
3554,501
3555,500
3556,500
3557,499
3558,499
3559,499
3560,498
3561,498
3562,498
3563,497
3564,497
3565,496
3566,496
3567,495
3568,494
3569,493
3570,493
3571,492
3572,492
3573,492
3574,492
3575,493
3576,492
3577,492
3578,491
3579,490
3580,490
3581,490
3582,491
3583,491
3584,491
3585,490
3586,491
3587,491
3588,491
3589,490
3590,490
3591,490
3592,489
3593,489
3594,489
3595,488
3596,488
3597,488
3598,487
3599,487
3600,486
3601,485
3602,485
3603,485
3604,484
3605,484
3606,484
3607,483
3608,483
3609,483
3610,483
3611,484
3612,484
3613,484
3614,484
3615,483
3616,483
3617,483
3618,483
3619,483
3620,483
3621,481
3622,481
3623,480
3624,480
3625,480
3626,479
3627,478
3628,478
3629,476
3630,476
3631,474
3632,473
3633,472
3634,471
3635,470
3636,470
3637,469
3638,469
3639,468
3640,468
3641,468
3642,468
3643,467
3644,467
3645,467
3646,466
3647,466
3648,466
3649,465
3650,465
3651,466
3652,466
3653,467
3654,467
3655,469
3656,470
3657,471
3658,473
3659,474
3660,476
3661,478
3662,480
3663,481
3664,483
3665,484
3666,486
3667,487
3668,489
3669,491
3670,492
3671,494
3672,496
3673,497
3674,498
3675,499
3676,500
3677,501
3678,503
3679,504
3680,504
3681,505
3682,507
3683,508
3684,509
3685,511
3686,512
3687,515
3688,518
3689,521
3690,524
3691,526
3692,529
3693,531
3694,534
3695,538
3696,540
3697,544
3698,547
3699,550
3700,553
3701,555
3702,557
3703,559
3704,559
3705,560
3706,561
3707,563
3708,564
3709,564
3710,566
3711,567
3712,567
3713,568
3714,568
3715,569
3716,569
3717,569
3718,569
3719,568
3720,568
3721,568
3722,568
3723,568
3724,567
3725,566
3726,565
3727,564
3728,563
3729,563
3730,561
3731,560
3732,559
3733,559
3734,559
3735,559
3736,558
3737,558
3738,558
3739,557
3740,556
3741,555
3742,554
3743,553
3744,553
3745,552
3746,551
3747,551
3748,550
3749,550
3750,549
3751,549
3752,548
3753,548
3754,547
3755,547
3756,546
3757,545
3758,545
3759,545
3760,544
3761,544
3762,543
3763,543
3764,543
3765,543
3766,543
3767,543
3768,542
3769,541
3770,542
3771,542
3772,542
3773,540
3774,540
3775,540
3776,539
3777,539
3778,538
3779,538
3780,537
3781,537
3782,536
3783,536
3784,536
3785,535
3786,535
3787,534
3788,534
3789,534
3790,533
3791,532
3792,532
3793,532
3794,531
3795,531
3796,530
3797,529
3798,529
3799,529
3800,529
3801,529
3802,529
3803,528
3804,528
3805,527
3806,527
3807,527
3808,527
3809,527
3810,526
3811,526
3812,526
3813,526
3814,525
3815,526
3816,525
3817,524
3818,524
3819,523
3820,523
3821,523
3822,521
3823,522
3824,521
3825,522
3826,521
3827,521
3828,521
3829,520
3830,520
3831,520
3832,520
3833,520
3834,520
3835,519
3836,519
3837,519
3838,519
3839,519
3840,519
3841,519
3842,519
3843,518
3844,518
3845,518
3846,518
3847,518
3848,517
3849,517
3850,517
3851,517
3852,517
3853,516
3854,516
3855,515
3856,515
3857,515
3858,514
3859,515
3860,515
3861,515
3862,515
3863,514
3864,514
3865,514
3866,514
3867,513
3868,513
3869,512
3870,513
3871,513
3872,513
3873,513
3874,512
3875,512
3876,512
3877,512
3878,512
3879,512
3880,512
3881,511
3882,511
3883,512
3884,512
3885,511
3886,512
3887,512
3888,512
3889,511
3890,511
3891,511
3892,510
3893,510
3894,510
3895,510
3896,510
3897,510
3898,510
3899,510
3900,510
3901,510
3902,510
3903,510
3904,509
3905,508
3906,509
3907,509
3908,509
3909,510
3910,510
3911,510
3912,509
3913,508
3914,507
3915,508
3916,508
3917,507
3918,507
3919,508
3920,507
3921,507
3922,507
3923,507
3924,507
3925,506
3926,506
3927,507
3928,506
3929,507
3930,507
3931,507
3932,507
3933,507
3934,506
3935,507
3936,506
3937,507
3938,507
3939,507
3940,506
3941,507
3942,506
3943,506
3944,506
3945,506
3946,506
3947,505
3948,505
3949,505
3950,505
3951,505
3952,505
3953,504
3954,504
3955,504
3956,504
3957,504
3958,504
3959,504
3960,504
3961,504
3962,504
3963,504
3964,504
3965,504
3966,504
3967,504
3968,503
3969,501
3970,500
3971,499
3972,499
3973,497
3974,496
3975,494
3976,492
3977,491
3978,489
3979,487
3980,487
3981,485
3982,485
3983,483
3984,483
3985,482
3986,481
3987,480
3988,479
3989,479
3990,478
3991,478
3992,478
3993,477
3994,476
3995,475
3996,475
3997,474
3998,473
3999,473
4000,473
4001,473
4002,473
4003,473
4004,474
4005,474
4006,475
4007,476
4008,476
4009,476
4010,477
4011,476
4012,477
4013,478
4014,477
4015,478
4016,478
4017,479
4018,480
4019,480
4020,482
4021,483
4022,484
4023,485
4024,486
4025,487
4026,488
4027,489
4028,490
4029,492
4030,493
4031,494
4032,496
4033,498
4034,499
4035,500
4036,502
4037,504
4038,505
4039,507
4040,509
4041,510
4042,511
4043,512
4044,513
4045,515
4046,517
4047,518
4048,519
4049,519
4050,519
4051,519
4052,519
4053,519
4054,519
4055,520
4056,520
4057,520
4058,519
4059,519
4060,519
4061,519
4062,519
4063,519
4064,518
4065,518
4066,519
4067,519
4068,519
4069,518
4070,519
4071,518
4072,518
4073,518
4074,518
4075,518
4076,518
4077,518
4078,517
4079,518
4080,518
4081,517
4082,518
4083,518
4084,518
4085,518
4086,517
4087,517
4088,517
4089,517
4090,517
4091,516
4092,516
4093,516
4094,516
4095,516
4096,516
4097,515
4098,515
4099,515
4100,515
4101,514
4102,514
4103,514
4104,513
4105,513
4106,513
4107,513
4108,513
4109,513
4110,513
4111,513
4112,513
4113,513
4114,512
4115,512
4116,512
4117,512
4118,512
4119,512
4120,511
4121,512
4122,512
4123,512
4124,512
4125,512
4126,512
4127,515
4128,518
4129,521
4130,524
4131,529
4132,532
4133,537
4134,541
4135,547
4136,551
4137,556
4138,559
4139,554
4140,549
4141,539
4142,531
4143,517
4144,504
4145,488
4146,477
4147,460
4148,446
4149,430
4150,415
4151,399
4152,387
4153,369
4154,356
4155,339
4156,327
4157,311
4158,297
4159,282
4160,269
4161,254
4162,243
4163,235
4164,230
4165,227
4166,226
4167,235
4168,243
4169,259
4170,274
4171,293
4172,308
4173,329
4174,346
4175,369
4176,386
4177,408
4178,427
4179,450
4180,470
4181,492
4182,509
4183,531
4184,550
4185,571
4186,587
4187,608
4188,625
4189,645
4190,660
4191,666
4192,670
4193,668
4194,664
4195,657
4196,650
4197,640
4198,631
4199,619
4200,609
4201,597
4202,588
4203,580
4204,575
4205,570
4206,566
4207,563
4208,561
4209,558
4210,557
4211,555
4212,554
4213,553
4214,551
4215,550
4216,550
4217,549
4218,548
4219,547
4220,547
4221,546
4222,545
4223,545
4224,545
4225,545
4226,544
4227,543
4228,542
4229,541
4230,541
4231,540
4232,540
4233,539
4234,538
4235,538
4236,537
4237,537
4238,537
4239,537
4240,536
4241,534
4242,534
4243,532
4244,531
4245,531
4246,530
4247,529
4248,528
4249,527
4250,527
4251,527
4252,526
4253,525
4254,524
4255,523
4256,522
4257,521
4258,521
4259,521
4260,521
4261,521
4262,520
4263,519
4264,519
4265,518
4266,518
4267,517
4268,517
4269,516
4270,515
4271,515
4272,514
4273,513
4274,512
4275,512
4276,512
4277,512
4278,511
4279,510
4280,510
4281,508
4282,508
4283,507
4284,507
4285,505
4286,505
4287,505
4288,504
4289,504
4290,504
4291,504
4292,504
4293,503
4294,502
4295,501
4296,501
4297,501
4298,501
4299,502
4300,501
4301,500
4302,500
4303,500
4304,499
4305,499
4306,499
4307,498
4308,498
4309,497
4310,497
4311,497
4312,497
4313,496
4314,496
4315,496
4316,495
4317,495
4318,494
4319,494
4320,494
4321,493
4322,492
4323,492
4324,491
4325,491
4326,491
4327,489
4328,489
4329,489
4330,489
4331,489
4332,489
4333,489
4334,488
4335,487
4336,487
4337,487
4338,487
4339,487
4340,487
4341,486
4342,487
4343,486
4344,485
4345,484
4346,485
4347,484
4348,484
4349,483
4350,484
4351,483
4352,483
4353,483
4354,484
4355,484
4356,484
4357,484
4358,484
4359,484
4360,483
4361,484
4362,484
4363,484
4364,485
4365,484
4366,484
4367,484
4368,483
4369,482
4370,481
4371,481
4372,481
4373,480
4374,479
4375,477
4376,476
4377,475
4378,475
4379,474
4380,473
4381,472
4382,471
4383,471
4384,471
4385,470
4386,470
4387,469
4388,469
4389,468
4390,467
4391,467
4392,467
4393,466
4394,466
4395,465
4396,466
4397,465
4398,465
4399,466
4400,466
4401,467
4402,469
4403,471
4404,472
4405,473
4406,475
4407,478
4408,479
4409,480
4410,482
4411,484
4412,485
4413,487
4414,489
4415,491
4416,492
4417,494
4418,496
4419,496
4420,498
4421,499
4422,500
4423,502
4424,502
4425,504
4426,504
4427,505
4428,507
4429,508
4430,509
4431,511
4432,512
4433,514
4434,516
4435,520
4436,522
4437,525
4438,528
4439,532
4440,535
4441,538
4442,541
4443,544
4444,547
4445,551
4446,553
4447,555
4448,557
4449,558
4450,559
4451,560
4452,561
4453,562
4454,563
4455,564
4456,565
4457,567
4458,567
4459,568
4460,568
4461,568
4462,568
4463,569
4464,569
4465,569
4466,568
4467,568
4468,568
4469,568
4470,568
4471,567
4472,566
4473,564
4474,564
4475,564
4476,563
4477,563
4478,562
4479,561
4480,560
4481,559
4482,559
4483,558
4484,557
4485,557
4486,557
4487,557
4488,556
4489,556
4490,555
4491,554
4492,554
4493,553
4494,553
4495,553
4496,552
4497,551
4498,551
4499,550
4500,549
4501,549
4502,549
4503,548
4504,547
4505,547
4506,547
4507,546
4508,546
4509,545
4510,544
4511,544
4512,543
4513,543
4514,542
4515,542
4516,541
4517,541
4518,540
4519,540
4520,540
4521,539
4522,539
4523,538
4524,537
4525,537
4526,537
4527,537
4528,536
4529,536
4530,535
4531,535
4532,535
4533,534
4534,534
4535,534
4536,533
4537,533
4538,532
4539,532
4540,532
4541,532
4542,532
4543,531
4544,531
4545,531
4546,531
4547,531
4548,530
4549,530
4550,530
4551,529
4552,529
4553,528
4554,528
4555,527
4556,527
4557,526
4558,526
4559,526
4560,525
4561,525
4562,525
4563,524
4564,524
4565,524
4566,524
4567,523
4568,522
4569,522
4570,522
4571,521
4572,521
4573,521
4574,521
4575,521
4576,521
4577,521
4578,521
4579,521
4580,521
4581,521
4582,521
4583,521
4584,520
4585,520
4586,520
4587,520
4588,519
4589,519
4590,519
4591,519
4592,519
4593,519
4594,518
4595,518
4596,518
4597,518
4598,517
4599,517
4600,517
4601,516
4602,516
4603,516
4604,516
4605,516
4606,516
4607,516
4608,516
4609,516
4610,516
4611,515
4612,515
4613,515
4614,515
4615,515
4616,515
4617,513
4618,514
4619,513
4620,513
4621,513
4622,513
4623,512
4624,512
4625,512
4626,511
4627,512
4628,511
4629,511
4630,511
4631,511
4632,512
4633,511
4634,511
4635,511
4636,511
4637,511
4638,511
4639,510
4640,510
4641,511
4642,510
4643,510
4644,510
4645,510
4646,509
4647,509
4648,509
4649,509
4650,509
4651,509
4652,509
4653,509
4654,508
4655,508
4656,508
4657,508
4658,508
4659,507
4660,507
4661,507
4662,508
4663,508
4664,508
4665,508
4666,508
4667,508
4668,507
4669,507
4670,507
4671,508
4672,508
4673,508
4674,508
4675,508
4676,508
4677,508
4678,508
4679,508
4680,508
4681,508
4682,509
4683,508
4684,508
4685,508
4686,508
4687,508
4688,507
4689,507
4690,506
4691,506
4692,506
4693,506
4694,506
4695,506
4696,506
4697,505
4698,505
4699,505
4700,505
4701,505
4702,505
4703,505
4704,504
4705,504
4706,504
4707,504
4708,504
4709,503
4710,504
4711,504
4712,504
4713,503
4714,502
4715,501
4716,500
4717,499
4718,498
4719,497
4720,496
4721,494
4722,493
4723,491
4724,489
4725,487
4726,486
4727,485
4728,483
4729,482
4730,481
4731,480
4732,479
4733,479
4734,478
4735,477
4736,476
4737,476
4738,476
4739,476
4740,476
4741,475
4742,475
4743,474
4744,474
4745,474
4746,475
4747,475
4748,475
4749,475
4750,474
4751,475
4752,475
4753,475
4754,475
4755,476
4756,476
4757,477
4758,477
4759,478
4760,478
4761,479
4762,480
4763,480
4764,480
4765,482
4766,483
4767,483
4768,484
4769,486
4770,486
4771,487
4772,489
4773,490
4774,491
4775,492
4776,493
4777,494
4778,495
4779,497
4780,499
4781,500
4782,502
4783,504
4784,505
4785,508
4786,508
4787,510
4788,512
4789,515
4790,516
4791,518
4792,519
4793,520
4794,520
4795,521
4796,521
4797,521
4798,521
4799,521
4800,520
4801,520
4802,520
4803,520
4804,519
4805,519
4806,519
4807,519
4808,519
4809,519
4810,519
4811,519
4812,519
4813,519
4814,519
4815,519
4816,519
4817,519
4818,519
4819,519
4820,518
4821,518
4822,518
4823,517
4824,517
4825,518
4826,517
4827,517
4828,517
4829,517
4830,517
4831,517
4832,517
4833,516
4834,516
4835,516
4836,515
4837,515
4838,515
4839,515
4840,515
4841,515
4842,515
4843,515
4844,515
4845,515
4846,514
4847,514
4848,515
4849,514
4850,515
4851,515
4852,515
4853,514
4854,515
4855,514
4856,513
4857,513
4858,513
4859,513
4860,513
4861,513
4862,513
4863,513
4864,512
4865,512
4866,513
4867,512
4868,513
4869,512
4870,512
4871,512
4872,513
4873,514
4874,517
4875,521
4876,524
4877,528
4878,532
4879,537
4880,542
4881,547
4882,551
4883,557
4884,559
4885,555
4886,551
4887,540
4888,531
4889,517
4890,505
4891,490
4892,478
4893,462
4894,448
4895,431
4896,417
4897,401
4898,387
4899,370
4900,356
4901,339
4902,327
4903,311
4904,297
4905,281
4906,269
4907,254
4908,242
4909,235
4910,230
4911,227
4912,226
4913,234
4914,244
4915,259
4916,272
4917,290
4918,307
4919,328
4920,347
4921,369
4922,386
4923,408
4924,427
4925,449
4926,467
4927,487
4928,505
4929,527
4930,546
4931,568
4932,584
4933,606
4934,623
4935,644
4936,659
4937,665
4938,668
4939,665
4940,662
4941,655
4942,648
4943,639
4944,630
4945,619
4946,610
4947,597
4948,588
4949,580
4950,575
4951,570
4952,567
4953,563
4954,560
4955,558
4956,556
4957,554
4958,553
4959,552
4960,551
4961,550
4962,549
4963,548
4964,548
4965,547
4966,546
4967,546
4968,546
4969,545
4970,544
4971,543
4972,543
4973,542
4974,542
4975,541
4976,540
4977,539
4978,538
4979,537
4980,537
4981,536
4982,536
4983,536
4984,535
4985,534
4986,534
4987,534
4988,534
4989,532
4990,531
4991,531
4992,530
4993,529
4994,529
4995,528
4996,527
4997,526
4998,526
4999,525
5000,525
5001,524
5002,523
5003,523
5004,521
5005,521
5006,521
5007,520
5008,519
5009,519
5010,518
5011,518
5012,518
5013,517
5014,516
5015,516
5016,515
5017,515
5018,514
5019,513
5020,513
5021,512
5022,512
5023,511
5024,511
5025,510
5026,510
5027,509
5028,508
5029,508
5030,508
5031,508
5032,508
5033,508
5034,507
5035,505
5036,505
5037,504
5038,504
5039,503
5040,502
5041,502
5042,502
5043,501
5044,501
5045,501
5046,500
5047,500
5048,501
5049,500
5050,500
5051,500
5052,500
5053,499
5054,498
5055,498
5056,497
5057,497
5058,496
5059,496
5060,495
5061,494
5062,494
5063,494
5064,493
5065,492
5066,492
5067,492
5068,492
5069,492
5070,491
5071,492
5072,492
5073,492
5074,491
5075,491
5076,491
5077,490
5078,490
5079,490
5080,489
5081,489
5082,488
5083,488
5084,488
5085,488
5086,488
5087,488
5088,487
5089,487
5090,486
5091,486
5092,486
5093,485
5094,485
5095,486
5096,486
5097,485
5098,485
5099,484
5100,484
5101,485
5102,485
5103,485
5104,484
5105,484
5106,484
5107,484
5108,485
5109,484
5110,484
5111,484
5112,485
5113,484
5114,484
5115,483
5116,482
5117,481
5118,480
5119,480
5120,479
5121,478
5122,478
5123,477
5124,476
5125,475
5126,473
5127,473
5128,471
5129,470
5130,470
5131,469
5132,468
5133,468
5134,468
5135,468
5136,468
5137,467
5138,466
5139,466
5140,466
5141,465
5142,465
5143,465
5144,464
5145,465
5146,465
5147,467
5148,469
5149,471
5150,472
5151,473
5152,475
5153,477
5154,479
5155,481
5156,482
5157,484
5158,486
5159,488
5160,489
5161,491
5162,491
5163,492
5164,494
5165,495
5166,497
5167,498
5168,499
5169,501
5170,502
5171,503
5172,504
5173,504
5174,505
5175,507
5176,507
5177,509
5178,512
5179,514
5180,516
5181,519
5182,523
5183,526
5184,529
5185,532
5186,535
5187,538
5188,540
5189,543
5190,547
5191,549
5192,552
5193,553
5194,555
5195,557
5196,559
5197,561
5198,561
5199,563
5200,564
5201,565
5202,566
5203,567
5204,568
5205,568
5206,568
5207,568
5208,568
5209,568
5210,568
5211,568
5212,568
5213,567
5214,567
5215,567
5216,566
5217,566
5218,566
5219,565
5220,565
5221,564
5222,564
5223,563
5224,563
5225,562
5226,561
5227,560
5228,560
5229,559
5230,559
5231,558
5232,556
5233,556
5234,555
5235,554
5236,553
5237,552
5238,551
5239,551
5240,551
5241,551
5242,551
5243,551
5244,550
5245,549
5246,549
5247,548
5248,547
5249,547
5250,547
5251,546
5252,546
5253,546
5254,545
5255,545
5256,544
5257,543
5258,543
5259,542
5260,542
5261,540
5262,540
5263,539
5264,539
5265,539
5266,538
5267,538
5268,537
5269,536
5270,536
5271,535
5272,535
5273,535
5274,535
5275,534
5276,534
5277,534
5278,534
5279,534
5280,534
5281,533
5282,533
5283,532
5284,532
5285,532
5286,532
5287,532
5288,531
5289,531
5290,531
5291,530
5292,530
5293,529
5294,529
5295,529
5296,528
5297,528
5298,529
5299,528
5300,528
5301,527
5302,527
5303,527
5304,526
5305,526
5306,525
5307,525
5308,525
5309,524
5310,524
5311,524
5312,524
5313,523
5314,523
5315,522
5316,521
5317,521
5318,521
5319,521
5320,521
5321,521
5322,522
5323,521
5324,521
5325,521
5326,521
5327,521
5328,520
5329,519
5330,519
5331,518
5332,519
5333,519
5334,519
5335,519
5336,519
5337,519
5338,519
5339,518
5340,518
5341,518
5342,518
5343,518
5344,518
5345,518
5346,519
5347,518
5348,518
5349,517
5350,517
5351,516
5352,516
5353,517
5354,517
5355,518
5356,517
5357,517
5358,516
5359,516
5360,516
5361,515
5362,515
5363,515
5364,515
5365,515
5366,515
5367,515
5368,515
5369,515
5370,515
5371,513
5372,513
5373,513
5374,513
5375,513
5376,512
5377,512
5378,512
5379,512
5380,511
5381,511
5382,511
5383,511
5384,510
5385,510
5386,510
5387,510
5388,511
5389,510
5390,510
5391,510
5392,510
5393,509
5394,509
5395,509
5396,508
5397,509
5398,509
5399,509
5400,508
5401,508
5402,507
5403,507
5404,507
5405,507
5406,507
5407,507
5408,507
5409,507
5410,506
5411,506
5412,506
5413,506
5414,506
5415,506
5416,506
5417,506
5418,506
5419,507
5420,507
5421,507
5422,507
5423,507
5424,507
5425,507
5426,507
5427,506
5428,507
5429,506
5430,506
5431,506
5432,507
5433,507
5434,507
5435,507
5436,507
5437,507
5438,507
5439,506
5440,506
5441,507
5442,507
5443,507
5444,507
5445,506
5446,506
5447,507
5448,506
5449,506
5450,507
5451,507
5452,507
5453,506
5454,506
5455,507
5456,506
5457,505
5458,505
5459,504
5460,504
5461,503
5462,501
5463,499
5464,498
5465,496
5466,494
5467,493
5468,492
5469,490
5470,489
5471,487
5472,485
5473,483
5474,482
5475,480
5476,479
5477,478
5478,477
5479,476
5480,476
5481,476
5482,475
5483,475
5484,474
5485,474
5486,473
5487,473
5488,473
5489,473
5490,473
5491,472
5492,472
5493,472
5494,473
5495,474
5496,474
5497,473
5498,475
5499,475
5500,475
5501,476
5502,476
5503,476
5504,476
5505,476
5506,477
5507,478
5508,478
5509,478
5510,479
5511,481
5512,482
5513,483
5514,484
5515,485
5516,486
5517,487
5518,488
5519,489
5520,490
5521,491
5522,493
5523,494
5524,495
5525,497
5526,498
5527,500
5528,502
5529,504
5530,506
5531,507
5532,508
5533,511
5534,512
5535,514
5536,515
5537,517
5538,519
5539,520
5540,520
5541,520
5542,520
5543,521
5544,521
5545,521
5546,520
5547,520
5548,520
5549,520
5550,520
5551,520
5552,520
5553,520
5554,519
5555,520
5556,520
5557,519
5558,519
5559,520
5560,519
5561,519
5562,519
5563,519
5564,519
5565,519
5566,519
5567,519
5568,519
5569,519
5570,519
5571,519
5572,518
5573,518
5574,517
5575,518
5576,517
5577,516
5578,516
5579,516
5580,516
5581,515
5582,516
5583,516
5584,515
5585,516
5586,515
5587,515
5588,515
5589,515
5590,515
5591,514
5592,514
5593,514
5594,514
5595,514
5596,513
5597,513
5598,513
5599,513
5600,513
5601,513
5602,513
5603,513
5604,513
5605,513
5606,513
5607,513
5608,513
5609,512
5610,512
5611,512
5612,513
5613,512
5614,512
5615,512
5616,511
5617,511
5618,511
5619,514
5620,516
5621,520
5622,524
5623,528
5624,532
5625,536
5626,540
5627,546
5628,550
5629,556
5630,559
5631,554
5632,551
5633,540
5634,530
5635,516
5636,505
5637,490
5638,477
5639,460
5640,447
5641,429
5642,416
5643,400
5644,386
5645,369
5646,357
5647,340
5648,327
5649,311
5650,298
5651,282
5652,271
5653,255
5654,243
5655,236
5656,231
5657,228
5658,228
5659,237
5660,246
5661,261
5662,273
5663,292
5664,308
5665,329
5666,346
5667,368
5668,387
5669,410
5670,429
5671,451
5672,468
5673,491
5674,509
5675,531
5676,547
5677,568
5678,585
5679,606
5680,624
5681,643
5682,658
5683,664
5684,667
5685,665
5686,663
5687,655
5688,648
5689,638
5690,629
5691,618
5692,609
5693,596
5694,587
5695,580
5696,575
5697,570
5698,566
5699,563
5700,560
5701,558
5702,556
5703,554
5704,552
5705,551
5706,551
5707,550
5708,549
5709,548
5710,548
5711,548
5712,547
5713,546
5714,545
5715,544
5716,543
5717,542
5718,542
5719,541
5720,540
5721,540
5722,539
5723,538
5724,538
5725,537
5726,536
5727,536
5728,536
5729,535
5730,535
5731,534
5732,534
5733,533
5734,533
5735,533
5736,532
5737,531
5738,531
5739,530
5740,530
5741,529
5742,528
5743,528
5744,528
5745,527
5746,527
5747,526
5748,525
5749,524
5750,524
5751,523
5752,522
5753,520
5754,519
5755,519
5756,518
5757,518
5758,517
5759,517
5760,516
5761,516
5762,515
5763,515
5764,514
5765,513
5766,512
5767,511
5768,511
5769,510
5770,509
5771,508
5772,507
5773,507
5774,506
5775,506
5776,505
5777,505
5778,504
5779,504
5780,504
5781,503
5782,503
5783,503
5784,503
5785,503
5786,502
5787,502
5788,502
5789,501
5790,501
5791,500
5792,500
5793,500
5794,501
5795,501
5796,500
5797,500
5798,499
5799,499
5800,498
5801,498
5802,497
5803,497
5804,496
5805,496
5806,496
5807,495
5808,495
5809,495
5810,494
5811,494
5812,494
5813,494
5814,493
5815,494
5816,493
5817,492
5818,492
5819,492
5820,492
5821,492
5822,492
5823,491
5824,491
5825,490
5826,490
5827,490
5828,489
5829,489
5830,489
5831,489
5832,488
5833,488
5834,489
5835,488
5836,488
5837,487
5838,487
5839,486
5840,485
5841,485
5842,485
5843,484
5844,484
5845,483
5846,483
5847,483
5848,483
5849,483
5850,483
5851,483
5852,484
5853,484
5854,484
5855,484
5856,485
5857,485
5858,484
5859,484
5860,483
5861,483
5862,482
5863,481
5864,480
5865,479
5866,478
5867,477
5868,476
5869,475
5870,474
5871,473
5872,472
5873,471
5874,471
5875,470
5876,469
5877,468
5878,468
5879,468
5880,468
5881,467
5882,467
5883,467
5884,466
5885,466
5886,465
5887,465
5888,464
5889,464
5890,465
5891,465
5892,466
5893,467
5894,468
5895,470
5896,472
5897,474
5898,476
5899,477
5900,478
5901,481
5902,483
5903,485
5904,487
5905,489
5906,490
5907,492
5908,493
5909,494
5910,495
5911,496
5912,497
5913,498
5914,499
5915,501
5916,502
5917,504
5918,505
5919,505
5920,506
5921,507
5922,508
5923,510
5924,512
5925,515
5926,516
5927,519
5928,523
5929,526
5930,529
5931,532
5932,535
5933,538
5934,541
5935,544
5936,547
5937,550
5938,551
5939,553
5940,556
5941,557
5942,558
5943,560
5944,561
5945,562
5946,563
5947,565
5948,566
5949,566
5950,567
5951,568
5952,568
5953,569
5954,569
5955,570
5956,569
5957,569
5958,568
5959,568
5960,568
5961,568
5962,567
5963,567
5964,565
5965,565
5966,564
5967,564
5968,563
5969,562
5970,561
5971,561
5972,561
5973,560
5974,559
5975,558
5976,558
5977,557
5978,556
5979,555
5980,554
5981,553
5982,553
5983,552
5984,551
5985,551
5986,551
5987,551
5988,551
5989,550
5990,549
5991,548
5992,547
5993,547
5994,547
5995,547
5996,547
5997,547
5998,547
5999,545
6000,545
6001,544
6002,544
6003,544
6004,543
6005,543
6006,542
6007,542
6008,541
6009,540
6010,539
6011,539
6012,539
6013,539
6014,538
6015,538
6016,537
6017,537
6018,536
6019,536
6020,536
6021,536
6022,536
6023,535
6024,534
6025,534
6026,534
6027,533
6028,533
6029,532
6030,531
6031,531
6032,531
6033,530
6034,530
6035,530
6036,530
6037,529
6038,529
6039,529
6040,529
6041,529
6042,529
6043,528
6044,527
6045,527
6046,527
6047,527
6048,527
6049,526
6050,526
6051,525
6052,525
6053,525
6054,524
6055,524
6056,524
6057,523
6058,523
6059,523
6060,523
6061,523
6062,523
6063,523
6064,523
6065,522
6066,522
6067,522
6068,522
6069,522
6070,522
6071,522
6072,521
6073,520
6074,520
6075,520
6076,520
6077,519
6078,519
6079,519
6080,518
6081,518
6082,518
6083,518
6084,517
6085,517
6086,517
6087,516
6088,516
6089,516
6090,516
6091,516
6092,516
6093,516
6094,516
6095,516
6096,515
6097,515
6098,515
6099,515
6100,515
6101,515
6102,515
6103,515
6104,515
6105,514
6106,515
6107,514
6108,514
6109,513
6110,513
6111,513
6112,512
6113,512
6114,512
6115,512
6116,512
6117,512
6118,512
6119,512
6120,512
6121,512
6122,512
6123,512
6124,511
6125,511
6126,511
6127,511
6128,511
6129,511
6130,511
6131,511
6132,511
6133,511
6134,511
6135,510
6136,510
6137,509
6138,510
6139,510
6140,510
6141,510
6142,510
6143,510
6144,510
6145,510
6146,510
6147,509
6148,510
6149,509
6150,509
6151,509
6152,509
6153,508
6154,508
6155,508
6156,507
6157,507
6158,507
6159,507
6160,507
6161,507
6162,507
6163,507
6164,506
6165,506
6166,506
6167,506
6168,506
6169,506
6170,507
6171,507
6172,507
6173,507
6174,506
6175,507
6176,506
6177,506
6178,506
6179,507
6180,507
6181,506
6182,507
6183,507
6184,506
6185,507
6186,506
6187,506
6188,506
6189,506
6190,506
6191,507
6192,506
6193,506
6194,506
6195,506
6196,506
6197,506
6198,505
6199,505
6200,505
6201,505
6202,505
6203,505
6204,504
6205,504
6206,504
6207,503
6208,502
6209,500
6210,499
6211,497
6212,496
6213,494
6214,493
6215,492
6216,490
6217,488
6218,487
6219,486
6220,484
6221,483
6222,482
6223,481
6224,480
6225,479
6226,479
6227,478
6228,478
6229,477
6230,476
6231,475
6232,475
6233,474
6234,473
6235,473
6236,472
6237,473
6238,474
6239,474
6240,474
6241,474
6242,475
6243,475
6244,475
6245,476
6246,476
6247,476
6248,476
6249,478
6250,478
6251,478
6252,478
6253,478
6254,479
6255,480
6256,482
6257,483
6258,484
6259,485
6260,486
6261,487
6262,487
6263,489
6264,489
6265,491
6266,492
6267,493
6268,494
6269,495
6270,496
6271,498
6272,499
6273,501
6274,503
6275,504
6276,506
6277,507
6278,509
6279,510
6280,512
6281,513
6282,515
6283,516
6284,518
6285,518
6286,519
6287,520
6288,521
6289,521
6290,521
6291,521
6292,521
6293,521
6294,520
6295,520
6296,520
6297,520
6298,520
6299,520
6300,519
6301,519
6302,519
6303,519
6304,519
6305,519
6306,519
6307,519
6308,519
6309,519
6310,519
6311,518
6312,519
6313,518
6314,517
6315,518
6316,517
6317,516
6318,516
6319,516
6320,516
6321,515
6322,516
6323,515
6324,515
6325,515
6326,515
6327,515
6328,515
6329,515
6330,514
6331,515
6332,515
6333,515
6334,514
6335,515
6336,515
6337,515
6338,515
6339,515
6340,514
6341,514
6342,513
6343,514
6344,514
6345,515
6346,514
6347,514
6348,513
6349,513
6350,513
6351,513
6352,512
6353,512
6354,512
6355,512
6356,512
6357,511
6358,511
6359,511
6360,511
6361,511
6362,511
6363,511
6364,511
6365,513
6366,515
6367,519
6368,523
6369,527
6370,532
6371,537
6372,542
6373,546
6374,551
6375,556
6376,559
6377,556
6378,550
6379,539
6380,530
6381,515
6382,505
6383,489
6384,476
6385,459
6386,446
6387,429
6388,415
6389,398
6390,383
6391,367
6392,355
6393,338
6394,325
6395,309
6396,297
6397,281
6398,270
6399,254
6400,243
6401,235
6402,230
6403,227
6404,228
6405,236
6406,243
6407,258
6408,273
6409,292
6410,309
6411,331
6412,348
6413,370
6414,389
6415,411
6416,428
6417,450
6418,468
6419,490
6420,508
6421,530
6422,547
6423,568
6424,587
6425,608
6426,623
6427,643
6428,658
6429,664
6430,669
6431,666
6432,663
6433,655
6434,648
6435,638
6436,630
6437,620
6438,609
6439,598
6440,589
6441,582
6442,575
6443,571
6444,568
6445,564
6446,561
6447,559
6448,557
6449,556
6450,555
6451,553
6452,552
6453,551
6454,551
6455,550
6456,548
6457,547
6458,547
6459,546
6460,545
6461,544
6462,543
6463,543
6464,542
6465,542
6466,542
6467,540
6468,540
6469,540
6470,540
6471,540
6472,539
6473,538
6474,537
6475,536
6476,536
6477,535
6478,534
6479,534
6480,533
6481,533
6482,532
6483,531
6484,530
6485,529
6486,529
6487,528
6488,527
6489,527
6490,527
6491,526
6492,525
6493,524
6494,523
6495,523
6496,522
6497,521
6498,520
6499,519
6500,519
6501,519
6502,519
6503,519
6504,519
6505,518
6506,518
6507,517
6508,516
6509,516
6510,515
6511,514
6512,514
6513,513
6514,512
6515,511
6516,511
6517,511
6518,510
6519,510
6520,510
6521,508
6522,508
6523,508
6524,507
6525,507
6526,506
6527,505
6528,504
6529,504
6530,504
6531,503
6532,503
6533,503
6534,502
6535,502
6536,502
6537,502
6538,500
6539,500
6540,499
6541,499
6542,499
6543,498
6544,497
6545,497
6546,497
6547,496
6548,496
6549,496
6550,496
6551,495
6552,495
6553,494
6554,493
6555,493
6556,492
6557,492
6558,492
6559,492
6560,492
6561,492
6562,492
6563,492
6564,492
6565,492
6566,491
6567,491
6568,491
6569,491
6570,491
6571,491
6572,491
6573,490
6574,490
6575,490
6576,489
6577,489
6578,488
6579,488
6580,488
6581,487
6582,487
6583,488
6584,487
6585,487
6586,487
6587,486
6588,486
6589,485
6590,486
6591,485
6592,484
6593,484
6594,484
6595,484
6596,483
6597,484
6598,484
6599,484
6600,483
6601,484
6602,484
6603,484
6604,484
6605,483
6606,483
6607,482
6608,482
6609,481
6610,481
6611,479
6612,479
6613,478
6614,476
6615,476
6616,475
6617,473
6618,472
6619,471
6620,470
6621,470
6622,470
6623,469
6624,469
6625,468
6626,468
6627,468
6628,467
6629,467
6630,467
6631,467
6632,466
6633,466
6634,466
6635,465
6636,465
6637,466
6638,467
6639,468
6640,470
6641,472
6642,473
6643,475
6644,476
6645,479
6646,480
6647,482
6648,484
6649,486
6650,487
6651,489
6652,491
6653,492
6654,493
6655,495
6656,496
6657,497
6658,498
6659,499
6660,500
6661,501
6662,502
6663,504
6664,504
6665,505
6666,506
6667,507
6668,508
6669,509
6670,511
6671,513
6672,515
6673,519
6674,522
6675,526
6676,528
6677,532
6678,534
6679,537
6680,540
6681,543
6682,545
6683,548
6684,551
6685,553
6686,555
6687,557
6688,558
6689,559
6690,560
6691,561
6692,562
6693,563
6694,564
6695,565
6696,566
6697,567
6698,567
6699,568
6700,568
6701,569
6702,568
6703,568
6704,568
6705,568
6706,567
6707,567
6708,567
6709,566
6710,565
6711,565
6712,564
6713,563
6714,562
6715,562
6716,561
6717,561
6718,560
6719,559
6720,558
6721,558
6722,558
6723,557
6724,556
6725,556
6726,555
6727,554
6728,553
6729,552
6730,551
6731,551
6732,551
6733,551
6734,550
6735,549
6736,549
6737,549
6738,548
6739,547
6740,547
6741,546
6742,545
6743,545
6744,545
6745,545
6746,544
6747,543
6748,543
6749,543
6750,543
6751,543
6752,542
6753,542
6754,542
6755,542
6756,542
6757,541
6758,541
6759,540
6760,540
6761,540
6762,540
6763,539
6764,538
6765,537
6766,537
6767,536
6768,536
6769,536
6770,535
6771,535
6772,534
6773,534
6774,534
6775,534
6776,534
6777,533
6778,532
6779,532
6780,531
6781,531
6782,531
6783,530
6784,529
6785,529
6786,529
6787,528
6788,528
6789,527
6790,527
6791,528
6792,527
6793,527
6794,527
6795,527
6796,527
6797,527
6798,526
6799,526
6800,525
6801,525
6802,525
6803,525
6804,524
6805,523
6806,523
6807,523
6808,522
6809,522
6810,521
6811,521
6812,522
6813,521
6814,521
6815,520
6816,520
6817,520
6818,520
6819,519
6820,519
6821,519
6822,519
6823,519
6824,519
6825,519
6826,519
6827,518
6828,518
6829,518
6830,518
6831,517
6832,517
6833,517
6834,517
6835,517
6836,516
6837,516
6838,516
6839,515
6840,515
6841,515
6842,515
6843,515
6844,515
6845,515
6846,514
6847,514
6848,514
6849,513
6850,513
6851,513
6852,513
6853,513
6854,513
6855,513
6856,513
6857,512
6858,513
6859,513
6860,513
6861,513
6862,513
6863,513
6864,513
6865,512
6866,513
6867,513
6868,513
6869,512
6870,512
6871,512
6872,512
6873,512
6874,512
6875,511
6876,511
6877,512
6878,512
6879,512
6880,512
6881,512
6882,512
6883,512
6884,512
6885,512
6886,512
6887,512
6888,512
6889,512
6890,512
6891,512
6892,512
6893,512
6894,511
6895,511
6896,510
6897,510
6898,510
6899,510
6900,509
6901,508
6902,508
6903,509
6904,509
6905,508
6906,508
6907,508
6908,508
6909,507
6910,507
6911,507
6912,506
6913,506
6914,506
6915,506
6916,506
6917,506
6918,505
6919,505
6920,505
6921,505
6922,506
6923,506
6924,506
6925,506
6926,505
6927,505
6928,504
6929,504
6930,504
6931,505
6932,505
6933,506
6934,506
6935,506
6936,506
6937,506
6938,506
6939,507
6940,507
6941,506
6942,507
6943,506
6944,506
6945,506
6946,505
6947,505
6948,505
6949,505
6950,505
6951,504
6952,503
6953,502
6954,501
6955,499
6956,499
6957,497
6958,496
6959,495
6960,493
6961,492
6962,491
6963,488
6964,487
6965,485
6966,483
6967,483
6968,481
6969,480
6970,480
6971,479
6972,479
6973,478
6974,477
6975,477
6976,476
6977,476
6978,476
6979,475
6980,475
6981,474
6982,474
6983,475
6984,473
6985,473
6986,473
6987,474
6988,474
6989,474
6990,474
6991,475
6992,476
6993,476
6994,476
6995,476
6996,476
6997,477
6998,477
6999,478
7000,479
7001,480
7002,481
7003,481
7004,482
7005,483
7006,484
7007,486
7008,486
7009,487
7010,488
7011,490
7012,491
7013,492
7014,493
7015,495
7016,496
7017,499
7018,500
7019,501
7020,502
7021,504
7022,505
7023,508
7024,509
7025,511
7026,513
7027,515
7028,516
7029,517
7030,518
7031,519
7032,520
7033,519
7034,519
7035,519
7036,519
7037,519
7038,519
7039,520
7040,519
7041,519
7042,519
7043,519
7044,519
7045,519
7046,519
7047,519
7048,518
7049,517
7050,518
7051,518
7052,518
7053,518
7054,517
7055,517
7056,517
7057,516
7058,516
7059,516
7060,516
7061,515
7062,516
7063,516
7064,515
7065,515
7066,515
7067,514
7068,513
7069,513
7070,513
7071,513
7072,513
7073,513
7074,513
7075,513
7076,514
7077,513
7078,513
7079,512
7080,513
7081,513
7082,512
7083,512
7084,512
7085,512
7086,512
7087,513
7088,512
7089,513
7090,513
7091,513
7092,513
7093,513
7094,513
7095,513
7096,513
7097,512
7098,512
7099,513
7100,513
7101,513
7102,513
7103,513
7104,513
7105,513
7106,512
7107,512
7108,512
7109,512
7110,512
7111,515
7112,516
7113,520
7114,524
7115,528
7116,532
7117,537
7118,541
7119,547
7120,551
7121,556
7122,560
7123,555
7124,549
7125,539
7126,530
7127,516
7128,505
7129,489
7130,476
7131,460
7132,448
7133,431
7134,416
7135,400
7136,387
7137,371
7138,356
7139,340
7140,327
7141,311
7142,298
7143,283
7144,270
7145,254
7146,243
7147,236
7148,231
7149,228
7150,228
7151,238
7152,246
7153,261
7154,273
7155,293
7156,308
7157,329
7158,348
7159,369
7160,389
7161,411
7162,429
7163,451
7164,470
7165,492
7166,510
7167,531
7168,550
7169,571
7170,588
7171,608
7172,624
7173,644
7174,659
7175,665
7176,669
7177,667
7178,664
7179,656
7180,649
7181,639
7182,631
7183,620
7184,609
7185,598
7186,588
7187,580
7188,574
7189,570
7190,566
7191,563
7192,561
7193,558
7194,557
7195,555
7196,554
7197,553
7198,551
7199,551
7200,550
7201,549
7202,549
7203,547
7204,547
7205,546
7206,545
7207,544
7208,544
7209,543
7210,542
7211,542
7212,541
7213,540
7214,540
7215,540
7216,539
7217,539
7218,538
7219,537
7220,537
7221,536
7222,536
7223,535
7224,534
7225,532
7226,532
7227,531
7228,530
7229,529
7230,528
7231,528
7232,528
7233,527
7234,527
7235,526
7236,526
7237,525
7238,524
7239,524
7240,523
7241,523
7242,523
7243,521
7244,520
7245,520
7246,520
7247,519
7248,519
7249,518
7250,518
7251,517
7252,516
7253,515
7254,515
7255,515
7256,514
7257,513
7258,512
7259,512
7260,511
7261,509
7262,509
7263,509
7264,508
7265,508
7266,508
7267,507
7268,507
7269,507
7270,507
7271,506
7272,505
7273,504
7274,504
7275,504
7276,504
7277,504
7278,504
7279,503
7280,503
7281,502
7282,502
7283,501
7284,500
7285,499
7286,500
7287,500
7288,500
7289,500
7290,499
7291,498
7292,497
7293,497
7294,497
7295,496
7296,496
7297,496
7298,495
7299,495
7300,495
7301,494
7302,494
7303,494
7304,493
7305,492
7306,492
7307,491
7308,490
7309,490
7310,490
7311,489
7312,490
7313,490
7314,490
7315,490
7316,489
7317,489
7318,489
7319,489
7320,488
7321,488
7322,489
7323,488
7324,488
7325,487
7326,487
7327,487
7328,486
7329,486
7330,486
7331,486
7332,486
7333,486
7334,485
7335,485
7336,484
7337,484
7338,484
7339,484
7340,483
7341,483
7342,483
7343,483
7344,483
7345,483
7346,483
7347,483
7348,483
7349,483
7350,483
7351,483
7352,483
7353,481
7354,481
7355,480
7356,480
7357,478
7358,477
7359,477
7360,476
7361,475
7362,475
7363,474
7364,473
7365,472
7366,472
7367,471
7368,470
7369,469
7370,469
7371,468
7372,468
7373,468
7374,467
7375,466
7376,466
7377,466
7378,465
7379,465
7380,465
7381,464
7382,464
7383,465
7384,466
7385,467
7386,468
7387,469
7388,471
7389,472
7390,474
7391,476
7392,477
7393,478
7394,481
7395,483
7396,484
7397,487
7398,489
7399,491
7400,493
7401,494
7402,496
7403,497
7404,498
7405,499
7406,500
7407,501
7408,502
7409,503
7410,504
7411,504
7412,505
7413,506
7414,507
7415,510
7416,512
7417,514
7418,517
7419,520
7420,523
7421,526
7422,528
7423,532
7424,535
7425,538
7426,540
7427,544
7428,546
7429,550
7430,552
7431,555
7432,557
7433,558
7434,560
7435,561
7436,562
7437,563
7438,563
7439,565
7440,566
7441,566
7442,567
7443,568
7444,568
7445,568
7446,568
7447,568
7448,568
7449,568
7450,568
7451,568
7452,567
7453,566
7454,566
7455,566
7456,565
7457,564
7458,564
7459,563
7460,562
7461,561
7462,560
7463,560
7464,559
7465,558
7466,557
7467,557
7468,556
7469,556
7470,556
7471,555
7472,554
7473,553
7474,553
7475,553
7476,552
7477,551
7478,551
7479,550
7480,549
7481,549
7482,548
7483,548
7484,547
7485,547
7486,547
7487,546
7488,545
7489,545
7490,544
7491,543
7492,543
7493,543
7494,542
7495,542
7496,542
7497,541
7498,541
7499,540
7500,540
7501,540
7502,539
7503,539
7504,539
7505,538
7506,537
7507,537
7508,536
7509,536
7510,536
7511,536
7512,535
7513,535
7514,534
7515,534
7516,534
7517,534
7518,533
7519,533
7520,533
7521,532
7522,532
7523,532
7524,532
7525,531
7526,531
7527,531
7528,531
7529,531
7530,531
7531,531
7532,530
7533,530
7534,530
7535,530
7536,529
7537,529
7538,528
7539,527
7540,527
7541,527
7542,527
7543,527
7544,526
7545,525
7546,525
7547,524
7548,523
7549,523
7550,523
7551,523
7552,523
7553,523
7554,523
7555,523
7556,523
7557,522
7558,522
7559,521
7560,521
7561,521
7562,521
7563,521
7564,521
7565,521
7566,520
7567,520
7568,520
7569,519
7570,519
7571,519
7572,520
7573,520
7574,519
7575,519
7576,519
7577,518
7578,518
7579,518
7580,517
7581,516
7582,516
7583,516
7584,516
7585,515
7586,516
7587,516
7588,515
7589,516
7590,515
7591,515
7592,516
7593,516
7594,516
7595,516
7596,516
7597,515
7598,515
7599,515
7600,515
7601,515
7602,515
7603,514
7604,514
7605,513
7606,513
7607,513
7608,513
7609,512
7610,512
7611,512
7612,511
7613,511
7614,511
7615,511
7616,510
7617,511
7618,510
7619,511
7620,510
7621,510
7622,510
7623,510
7624,510
7625,510
7626,509
7627,509
7628,509
7629,509
7630,509
7631,510
7632,510
7633,510
7634,510
7635,510
7636,509
7637,509
7638,509
7639,509
7640,509
7641,509
7642,508
7643,508
7644,509
7645,508
7646,508
7647,508
7648,508
7649,508
7650,509
7651,508
7652,508
7653,508
7654,508
7655,509
7656,509
7657,509
7658,509
7659,509
7660,509
7661,510
7662,510
7663,510
7664,509
7665,508
7666,508
7667,508
7668,508
7669,508
7670,507
7671,507
7672,507
7673,507
7674,507
7675,507
7676,507
7677,507
7678,507
7679,507
7680,507
7681,508
7682,508
7683,508
7684,508
7685,507
7686,507
7687,507
7688,507
7689,507
7690,506
7691,506
7692,507
7693,506
7694,507
7695,507
7696,506
7697,505
7698,503
7699,502
7700,501
7701,500
7702,499
7703,497
7704,496
7705,494
7706,492
7707,491
7708,490
7709,488
7710,487
7711,485
7712,483
7713,482
7714,481
7715,480
7716,479
7717,479
7718,479
7719,478
7720,478
7721,477
7722,477
7723,476
7724,476
7725,475
7726,475
7727,474
7728,473
7729,473
7730,474
7731,474
7732,474
7733,474
7734,474
7735,475
7736,475
7737,476
7738,476
7739,476
7740,476
7741,477
7742,477
7743,478
7744,478
7745,478
7746,479
7747,480
7748,481
7749,482
7750,483
7751,484
7752,486
7753,486
7754,487
7755,487
7756,488
7757,489
7758,490
7759,492
7760,493
7761,494
7762,496
7763,497
7764,499
7765,501
7766,502
7767,504
7768,505
7769,508
7770,509
7771,511
7772,512
7773,514
7774,515
7775,518
7776,519
7777,519
7778,520
7779,521
7780,522
7781,522
7782,522
7783,521
7784,521
7785,521
7786,521
7787,521
7788,521
7789,520
7790,520
7791,520
7792,520
7793,520
7794,520
7795,520
7796,519
7797,519
7798,519
7799,519
7800,519
7801,519
7802,518
7803,518
7804,518
7805,518
7806,517
7807,518
7808,518
7809,518
7810,518
7811,517
7812,518
7813,517
7814,517
7815,516
7816,516
7817,516
7818,517
7819,516
7820,516
7821,515
7822,515
7823,514
7824,514
7825,514
7826,514
7827,513
7828,513
7829,513
7830,513
7831,513
7832,513
7833,513
7834,514
7835,513
7836,514
7837,514
7838,514
7839,514
7840,513
7841,513
7842,512
7843,512
7844,512
7845,512
7846,511
7847,512
7848,512
7849,513
7850,513
7851,512
7852,512
7853,512
7854,512
7855,512
7856,512
7857,514
7858,516
7859,520
7860,524
7861,528
7862,532
7863,536
7864,541
7865,547
7866,551
7867,555
7868,558
7869,553
7870,548
7871,537
7872,528
7873,514
7874,502
7875,487
7876,475
7877,459
7878,445
7879,428
7880,415
7881,398
7882,386
7883,369
7884,355
7885,339
7886,327
7887,311
7888,299
7889,283
7890,270
7891,255
7892,244
7893,236
7894,231
7895,229
7896,228
7897,236
7898,246
7899,261
7900,275
7901,294
7902,309
7903,330
7904,348
7905,369
7906,387
7907,409
7908,428
7909,450
7910,469
7911,491
7912,508
7913,531
7914,549
7915,570
7916,587
7917,607
7918,624
7919,645
7920,659
7921,664
7922,668
7923,665
7924,662
7925,655
7926,649
7927,639
7928,631
7929,620
7930,611
7931,598
7932,588
7933,581
7934,575
7935,571
7936,567
7937,564
7938,561
7939,559
7940,557
7941,555
7942,553
7943,552
7944,552
7945,551
7946,550
7947,550
7948,549
7949,548
7950,547
7951,547
7952,546
7953,545
7954,544
7955,544
7956,543
7957,542
7958,542
7959,542
7960,541
7961,540
7962,540
7963,539
7964,538
7965,537
7966,537
7967,537
7968,536
7969,535
7970,534
7971,534
7972,533
7973,532
7974,532
7975,531
7976,531
7977,530
7978,529
7979,528
7980,528
7981,528
7982,527
7983,527
7984,526
7985,525
7986,524
7987,523
7988,523
7989,523
7990,522
7991,522
7992,521
7993,521
7994,520
7995,520
7996,519
7997,519
7998,518
7999,517
8000,516
8001,515
8002,515
8003,514
8004,513
8005,512
8006,512
8007,511
8008,511
8009,510
8010,509
8011,508
8012,508
8013,508
8014,507
8015,507
8016,506
8017,505
8018,504
8019,504
8020,504
8021,503
8022,503
8023,503
8024,502
8025,502
8026,501
8027,500
8028,499
8029,499
8030,499
8031,499
8032,499
8033,499
8034,498
8035,497
8036,497
8037,496
8038,496
8039,495
8040,495
8041,495
8042,495
8043,495
8044,495
8045,494
8046,494
8047,494
8048,493
8049,492
8050,492
8051,492
8052,492
8053,492
8054,491
8055,491
8056,491
8057,490
8058,490
8059,490
8060,491
8061,491
8062,491
8063,490
8064,490
8065,489
8066,490
8067,489
8068,488
8069,488
8070,487
8071,486
8072,486
8073,485
8074,484
8075,484
8076,484
8077,483
8078,482
8079,483
8080,483
8081,483
8082,482
8083,482
8084,482
8085,483
8086,483
8087,483
8088,483
8089,483
8090,483
8091,483
8092,483
8093,482
8094,482
8095,482
8096,483
8097,483
8098,483
8099,482
8100,482
8101,481
8102,480
8103,480
8104,478
8105,478
8106,476
8107,475
8108,474
8109,472
8110,472
8111,471
8112,470
8113,470
8114,469
8115,469
8116,468
8117,468
8118,468
8119,469
8120,468
8121,467
8122,467
8123,467
8124,466
8125,466
8126,466
8127,466
8128,466
8129,467
8130,467
8131,468
8132,470
8133,472
8134,473
8135,475
8136,477
8137,478
8138,480
8139,482
8140,483
8141,485
8142,486
8143,488
8144,490
8145,492
8146,493
8147,495
8148,495
8149,496
8150,497
8151,498
8152,499
8153,500
8154,501
8155,502
8156,503
8157,504
8158,505
8159,506
8160,507
8161,509
8162,511
8163,514
8164,516
8165,520
8166,522
8167,525
8168,528
8169,531
8170,535
8171,538
8172,541
8173,544
8174,547
8175,551
8176,552
8177,554
8178,556
8179,557
8180,558
8181,559
8182,560
8183,561
8184,563
8185,564
8186,565
8187,565
8188,566
8189,567
8190,568
8191,569
8192,569
8193,569
8194,569
8195,568
8196,568
8197,568
8198,568
8199,567
8200,567
8201,566
8202,566
8203,565
8204,564
8205,564
8206,563
8207,563
8208,562
8209,561
8210,561
8211,560
8212,560
8213,559
8214,558
8215,557
8216,556
8217,556
8218,555
8219,555
8220,554
8221,554
8222,553
8223,552
8224,551
8225,551
8226,551
8227,551
8228,550
8229,549
8230,548
8231,549
8232,548
8233,548
8234,547
8235,547
8236,546
8237,545
8238,545
8239,544
8240,543
8241,543
8242,542
8243,542
8244,542
8245,541
8246,541
8247,540
8248,540
8249,540
8250,539
8251,539
8252,538
8253,538
8254,537
8255,537
8256,537
8257,537
8258,536
8259,536
8260,536
8261,536
8262,536
8263,536
8264,535
8265,535
8266,534
8267,534
8268,533
8269,532
8270,532
8271,531
8272,531
8273,530
8274,531
8275,531
8276,530
8277,529
8278,529
8279,528
8280,528
8281,527
8282,528
8283,528
8284,527
8285,527
8286,527
8287,527
8288,527
8289,527
8290,526
8291,525
8292,525
8293,525
8294,525
8295,525
8296,525
8297,524
8298,524
8299,524
8300,524
8301,523
8302,523
8303,523
8304,522
8305,522
8306,522
8307,522
8308,522
8309,521
8310,520
8311,520
8312,520
8313,520
8314,520
8315,519
8316,519
8317,519
8318,519
8319,518
8320,518
8321,518
8322,518
8323,518
8324,518
8325,517
8326,517
8327,517
8328,516
8329,516
8330,515
8331,515
8332,514
8333,514
8334,514
8335,514
8336,514
8337,513
8338,513
8339,512
8340,513
8341,513
8342,513
8343,513
8344,512
8345,512
8346,512
8347,511
8348,512
8349,512
8350,512
8351,512
8352,513
8353,512
8354,512
8355,512
8356,512
8357,512
8358,512
8359,512
8360,512
8361,512
8362,512
8363,512
8364,512
8365,512
8366,511
8367,511
8368,512
8369,512
8370,511
8371,510
8372,510
8373,511
8374,510
8375,510
8376,510
8377,510
8378,509
8379,509
8380,509
8381,509
8382,509
8383,509
8384,508
8385,508
8386,508
8387,509
8388,509
8389,509
8390,509
8391,509
8392,508
8393,508
8394,508
8395,508
8396,508
8397,508
8398,508
8399,509
8400,508
8401,508
8402,508
8403,507
8404,508
8405,507
8406,507
8407,507
8408,507
8409,507
8410,507
8411,507
8412,507
8413,507
8414,506
8415,506
8416,505
8417,505
8418,506
8419,506
8420,506
8421,506
8422,505
8423,506
8424,506
8425,506
8426,505
8427,505
8428,505
8429,505
8430,505
8431,505
8432,505
8433,505
8434,504
8435,505
8436,505
8437,504
8438,504
8439,505
8440,505
8441,504
8442,504
8443,504
8444,503
8445,502
8446,501
8447,500
8448,498
8449,496
8450,495
8451,494
8452,492
8453,489
8454,488
8455,487
8456,486
8457,485
8458,484
8459,483
8460,482
8461,480
8462,480
8463,479
8464,478
8465,478
8466,478
8467,477
8468,476
8469,476
8470,475
8471,474
8472,473
8473,473
8474,473
8475,473
8476,473
8477,473
8478,473
8479,474
8480,474
8481,475
8482,475
8483,475
8484,476
8485,477
8486,476
8487,476
8488,477
8489,477
8490,478
8491,478
8492,479
8493,480
8494,480
8495,480
8496,481
8497,482
8498,483
8499,484
8500,486
8501,486
8502,487
8503,488
8504,490
8505,491
8506,492
8507,493
8508,494
8509,496
8510,499
8511,501
8512,503
8513,504
8514,505
8515,507
8516,508
8517,510
8518,511
8519,513
8520,514
8521,517
8522,518
8523,518
8524,519
8525,519
8526,519
8527,520
8528,520
8529,520
8530,521
8531,521
8532,521
8533,520
8534,520
8535,520
8536,520
8537,520
8538,520
8539,519
8540,519
8541,519
8542,518
8543,518
8544,518
8545,518
8546,516
8547,516
8548,516
8549,516
8550,516
8551,516
8552,516
8553,516
8554,515
8555,515
8556,515
8557,515
8558,515
8559,515
8560,515
8561,515
8562,514
8563,514
8564,514
8565,514
8566,514
8567,514
8568,513
8569,514
8570,515
8571,515
8572,515
8573,515
8574,515
8575,515
8576,515
8577,514
8578,514
8579,514
8580,514
8581,513
8582,513
8583,513
8584,514
8585,514
8586,514
8587,514
8588,514
8589,513
8590,513
8591,513
8592,513
8593,513
8594,513
8595,513
8596,513
8597,513
8598,513
8599,513
8600,513
8601,513
8602,513
8603,516
8604,518
8605,521
8606,524
8607,529
8608,533
8609,538
8610,542
8611,547
8612,551
8613,557
8614,559
8615,554
8616,550
8617,539
8618,530
8619,516
8620,504
8621,489
8622,477
8623,461
8624,447
8625,430
8626,417
8627,401
8628,387
8629,370
8630,356
8631,339
8632,327
8633,311
8634,298
8635,282
8636,270
8637,256
8638,244
8639,237
8640,232
8641,230
8642,229
8643,238
8644,247
8645,262
8646,275
8647,294
8648,310
8649,332
8650,349
8651,370
8652,388
8653,410
8654,430
8655,452
8656,470
8657,492
8658,511
8659,532
8660,550
8661,571
8662,588
8663,609
8664,626
8665,646
8666,661
8667,667
8668,669
8669,666
8670,663
8671,655
8672,649
8673,639
8674,631
8675,620
8676,611
8677,599
8678,589
8679,582
8680,575
8681,570
8682,566
8683,563
8684,561
8685,559
8686,557
8687,556
8688,554
8689,553
8690,552
8691,552
8692,551
8693,550
8694,549
8695,548
8696,547
8697,546
8698,545
8699,544
8700,543
8701,543
8702,543
8703,542
8704,542
8705,541
8706,541
8707,541
8708,540
8709,540
8710,540
8711,539
8712,539
8713,538
8714,537
8715,537
8716,536
8717,536
8718,535
8719,534
8720,534
8721,533
8722,533
8723,532
8724,531
8725,531
8726,530
8727,528
8728,528
8729,527
8730,526
8731,526
8732,525
8733,524
8734,524
8735,524
8736,523
8737,522
8738,521
8739,520
8740,520
8741,519
8742,518
8743,518
8744,516
8745,515
8746,515
8747,514
8748,513
8749,513
8750,513
8751,512
8752,511
8753,511
8754,510
8755,509
8756,508
8757,507
8758,507
8759,507
8760,506
8761,505
8762,505
8763,504
8764,504
8765,503
8766,503
8767,502
8768,502
8769,501
8770,501
8771,501
8772,501
8773,501
8774,501
8775,500
8776,500
8777,499
8778,499
8779,499
8780,499
8781,498
8782,498
8783,497
8784,496
8785,495
8786,495
8787,495
8788,494
8789,493
8790,493
8791,493
8792,493
8793,492
8794,491
8795,491
8796,491
8797,491
8798,491
8799,491
8800,490
8801,490
8802,490
8803,490
8804,490
8805,490
8806,489
8807,490
8808,489
8809,489
8810,488
8811,489
8812,489
8813,488
8814,489
8815,488
8816,488
8817,488
8818,487
8819,487
8820,487
8821,487
8822,487
8823,487
8824,486
8825,485
8826,485
8827,484
8828,484
8829,484
8830,483
8831,483
8832,483
8833,483
8834,483
8835,483
8836,482
8837,482
8838,482
8839,482
8840,482
8841,482
8842,483
8843,482
8844,482
8845,481
8846,480
8847,480
8848,479
8849,479
8850,478
8851,477
8852,476
8853,475
8854,474
8855,473
8856,472
8857,472
8858,471
8859,470
8860,470
8861,469
8862,470
8863,469
8864,468
8865,468
8866,468
8867,467
8868,467
8869,467
8870,466
8871,465
8872,465
8873,466
8874,466
8875,467
8876,468
8877,469
8878,470
8879,473
8880,474
8881,476
8882,478
8883,479
8884,480
8885,482
8886,484
8887,486
8888,487
8889,489
8890,490
8891,492
8892,494
8893,495
8894,496
8895,497
8896,498
8897,499
8898,500
8899,501
8900,502
8901,503
8902,504
8903,504
8904,505
8905,506
8906,507
8907,509
8908,511
8909,514
8910,517
8911,520
8912,523
8913,526
8914,529
8915,532
8916,535
8917,538
8918,541
8919,544
8920,547
8921,549
8922,552
8923,554
8924,556
8925,558
8926,560
8927,560
8928,562
8929,563
8930,564
8931,564
8932,564
8933,565
8934,566
8935,567
8936,567
8937,568
8938,568
8939,568
8940,569
8941,569
8942,569
8943,569
8944,569
8945,569
8946,568
8947,568
8948,567
8949,567
8950,565
8951,565
8952,564
8953,563
8954,562
8955,561
8956,560
8957,560
8958,559
8959,559
8960,557
8961,557
8962,556
8963,556
8964,556
8965,555
8966,555
8967,554
8968,553
8969,553
8970,552
8971,551
8972,551
8973,551
8974,551
8975,550
8976,549
8977,548
8978,548
8979,548
8980,548
8981,548
8982,547
8983,547
8984,546
8985,545
8986,545
8987,543
8988,543
8989,542
8990,541
8991,540
8992,541
8993,540
8994,539
8995,539
8996,539
8997,539
8998,539
8999,538
9000,538
9001,538
9002,538
9003,537
9004,536
9005,535
9006,535
9007,535
9008,534
9009,533
9010,532
9011,532
9012,532
9013,531
9014,531
9015,531
9016,531
9017,530
9018,530
9019,531
9020,531
9021,531
9022,531
9023,530
9024,529
9025,530
9026,530
9027,530
9028,529
9029,528
9030,528
9031,527
9032,527
9033,527
9034,527
9035,527
9036,527
9037,527
9038,526
9039,526
9040,525
9041,524
9042,524
9043,523
9044,523
9045,522
9046,522
9047,522
9048,521
9049,521
9050,521
9051,521
9052,520
9053,520
9054,520
9055,520
9056,519
9057,519
9058,519
9059,519
9060,519
9061,519
9062,519
9063,519
9064,518
9065,517
9066,517
9067,517
9068,517
9069,517
9070,517
9071,516
9072,516
9073,516
9074,516
9075,516
9076,516
9077,515
9078,515
9079,515
9080,515
9081,515
9082,515
9083,515
9084,515
9085,514
9086,514
9087,513
9088,513
9089,513
9090,513
9091,512
9092,512
9093,512
9094,512
9095,512
9096,512
9097,512
9098,511
9099,511
9100,511
9101,511
9102,511
9103,512
9104,511
9105,511
9106,510
9107,511
9108,511
9109,511
9110,510
9111,511
9112,510
9113,510
9114,510
9115,510
9116,510
9117,510
9118,510
9119,510
9120,510
9121,510
9122,510
9123,509
9124,509
9125,510
9126,509
9127,509
9128,509
9129,508
9130,509
9131,508
9132,509
9133,508
9134,508
9135,508
9136,508
9137,508
9138,508
9139,508
9140,508
9141,509
9142,509
9143,509
9144,509
9145,509
9146,508
9147,508
9148,508
9149,508
9150,508
9151,508
9152,507
9153,507
9154,507
9155,507
9156,507
9157,507
9158,507
9159,507
9160,507
9161,507
9162,508
9163,507
9164,508
9165,507
9166,508
9167,508
9168,507
9169,507
9170,507
9171,507
9172,507
9173,507
9174,507
9175,507
9176,506
9177,506
9178,506
9179,505
9180,505
9181,505
9182,504
9183,504
9184,504
9185,504
9186,504
9187,504
9188,504
9189,504
9190,503
9191,502
9192,501
9193,499
9194,498
9195,497
9196,496
9197,494
9198,492
9199,491
9200,489
9201,488
9202,487
9203,486
9204,484
9205,483
9206,482
9207,481
9208,480
9209,479
9210,478
9211,477
9212,476
9213,476
9214,476
9215,475
9216,475
9217,475
9218,474
9219,473
9220,473
9221,473
9222,473
9223,474
9224,473
9225,473
9226,473
9227,473
9228,473
9229,474
9230,475
9231,476
9232,476
9233,476
9234,476
9235,477
9236,478
9237,479
9238,479
9239,480
9240,480
9241,481
9242,482
9243,483
9244,484
9245,485
9246,486
9247,487
9248,488
9249,490
9250,491
9251,492
9252,493
9253,494
9254,496
9255,497
9256,499
9257,500
9258,502
9259,504
9260,505
9261,507
9262,508
9263,510
9264,512
9265,514
9266,516
9267,518
9268,519
9269,520
9270,520
9271,521
9272,521
9273,520
9274,520
9275,520
9276,520
9277,520
9278,520
9279,520
9280,520
9281,520
9282,520
9283,519
9284,520
9285,519
9286,519
9287,519
9288,519
9289,519
9290,519
9291,519
9292,518
9293,518
9294,518
9295,518
9296,517
9297,517
9298,516
9299,517
9300,517
9301,517
9302,517
9303,516
9304,515
9305,515
9306,515
9307,515
9308,515
9309,516
9310,515
9311,515
9312,515
9313,516
9314,516
9315,516
9316,515
9317,515
9318,515
9319,515
9320,515
9321,515
9322,515
9323,515
9324,515
9325,515
9326,515
9327,514
9328,513
9329,513
9330,513
9331,513
9332,513
9333,512
9334,512
9335,512
9336,513
9337,512
9338,513
9339,513
9340,513
9341,512
9342,512
9343,512
9344,512
9345,512
9346,512
9347,512
9348,513
9349,515
9350,517
9351,521
9352,524
9353,528
9354,532
9355,537
9356,541
9357,547
9358,551
9359,556
9360,558
9361,553
9362,550
9363,539
9364,531
9365,517
9366,507
9367,491
9368,477
9369,461
9370,446
9371,430
9372,417
9373,401
9374,387
9375,369
9376,357
9377,339
9378,326
9379,310
9380,296
9381,280
9382,269
9383,254
9384,243
9385,235
9386,230
9387,226
9388,226
9389,235
9390,244
9391,259
9392,273
9393,292
9394,309
9395,330
9396,346
9397,368
9398,387
9399,410
9400,429
9401,451
9402,468
9403,489
9404,508
9405,530
9406,547
9407,568
9408,586
9409,607
9410,624
9411,645
9412,659
9413,665
9414,668
9415,666
9416,664
9417,657
9418,650
9419,639
9420,630
9421,618
9422,608
9423,596
9424,587
9425,579
9426,573
9427,568
9428,565
9429,561
9430,560
9431,558
9432,557
9433,556
9434,555
9435,553
9436,552
9437,551
9438,550
9439,548
9440,547
9441,546
9442,545
9443,544
9444,543
9445,543
9446,543
9447,543
9448,542
9449,541
9450,540
9451,540
9452,539
9453,539
9454,537
9455,537
9456,536
9457,536
9458,536
9459,535
9460,535
9461,534
9462,533
9463,532
9464,532
9465,531
9466,530
9467,529
9468,529
9469,528
9470,527
9471,527
9472,526
9473,526
9474,526
9475,525
9476,524
9477,523
9478,523
9479,523
9480,521
9481,521
9482,521
9483,520
9484,520
9485,519
9486,519
9487,519
9488,519
9489,519
9490,518
9491,517
9492,516
9493,516
9494,515
9495,515
9496,513
9497,512
9498,512
9499,512
9500,511
9501,511
9502,511
9503,510
9504,509
9505,508
9506,508
9507,508
9508,507
9509,507
9510,507
9511,507
9512,506
9513,505
9514,505
9515,504
9516,504
9517,504
9518,503
9519,503
9520,502
9521,502
9522,501
9523,500
9524,499
9525,499
9526,499
9527,499
9528,498
9529,497
9530,497
9531,497
9532,497
9533,497
9534,497
9535,497
9536,496
9537,496
9538,496
9539,496
9540,495
9541,495
9542,495
9543,495
9544,494
9545,493
9546,493
9547,492
9548,491
9549,491
9550,491
9551,491
9552,491
9553,491
9554,491
9555,492
9556,491
9557,491
9558,490
9559,489
9560,489
9561,489
9562,489
9563,489
9564,489
9565,488
9566,488
9567,487
9568,487
9569,487
9570,487
9571,486
9572,486
9573,486
9574,485
9575,485
9576,485
9577,484
9578,485
9579,485
9580,485
9581,485
9582,485
9583,485
9584,485
9585,484
9586,484
9587,484
9588,484
9589,483
9590,483
9591,483
9592,482
9593,481
9594,481
9595,480
9596,479
9597,478
9598,476
9599,476
9600,475
9601,473
9602,473
9603,472
9604,471
9605,470
9606,469
9607,469
9608,469
9609,468
9610,468
9611,468
9612,467
9613,467
9614,467
9615,466
9616,466
9617,465
9618,465
9619,465
9620,465
9621,466
9622,466
9623,467
9624,469
9625,470
9626,471
9627,473
9628,475
9629,477
9630,479
9631,481
9632,482
9633,483
9634,484
9635,486
9636,488
9637,489
9638,491
9639,493
9640,494
9641,495
9642,497
9643,498
9644,499
9645,499
9646,500
9647,501
9648,502
9649,502
9650,503
9651,504
9652,506
9653,508
9654,511
9655,513
9656,516
9657,519
9658,521
9659,524
9660,527
9661,530
9662,532
9663,536
9664,539
9665,543
9666,545
9667,548
9668,551
9669,553
9670,555
9671,557
9672,558
9673,560
9674,561
9675,562
9676,563
9677,564
9678,564
9679,565
9680,565
9681,566
9682,567
9683,568
9684,568
9685,568
9686,568
9687,568
9688,568
9689,567
9690,567
9691,566
9692,566
9693,565
9694,565
9695,565
9696,564
9697,563
9698,563
9699,563
9700,562
9701,561
9702,560
9703,560
9704,559
9705,559
9706,558
9707,558
9708,557
9709,556
9710,555
9711,553
9712,553
9713,552
9714,552
9715,551
9716,551
9717,550
9718,550
9719,550
9720,548
9721,548
9722,548
9723,547
9724,547
9725,546
9726,546
9727,545
9728,544
9729,544
9730,543
9731,543
9732,542
9733,542
9734,542
9735,542
9736,542
9737,541
9738,541
9739,541
9740,540
9741,540
9742,539
9743,538
9744,538
9745,537
9746,537
9747,536
9748,537
9749,536
9750,536
9751,536
9752,535
9753,535
9754,534
9755,533
9756,533
9757,533
9758,532
9759,532
9760,532
9761,531
9762,531
9763,531
9764,531
9765,531
9766,531
9767,530
9768,530
9769,530
9770,530
9771,529
9772,529
9773,529
9774,529
9775,529
9776,528
9777,528
9778,528
9779,527
9780,527
9781,527
9782,526
9783,526
9784,526
9785,526
9786,526
9787,526
9788,525
9789,525
9790,524
9791,524
9792,523
9793,523
9794,522
9795,521
9796,521
9797,521
9798,521
9799,522
9800,521
9801,521
9802,521
9803,521
9804,520
9805,519
9806,519
9807,519
9808,519
9809,519
9810,519
9811,518
9812,518
9813,517
9814,516
9815,516
9816,515
9817,515
9818,515
9819,515
9820,515
9821,515
9822,515
9823,515
9824,515
9825,514
9826,515
9827,515
9828,515
9829,515
9830,514
9831,514
9832,513
9833,514
9834,514
9835,515
9836,515
9837,515
9838,515
9839,515
9840,515
9841,514
9842,514
9843,513
9844,513
9845,513
9846,513
9847,513
9848,513
9849,513
9850,513
9851,512
9852,512
9853,512
9854,511
9855,511
9856,511
9857,512
9858,511
9859,511
9860,511
9861,510
9862,511
9863,511
9864,512
9865,511
9866,511
9867,511
9868,510
9869,510
9870,510
9871,510
9872,510
9873,510
9874,510
9875,510
9876,509
9877,510
9878,510
9879,510
9880,509
9881,509
9882,509
9883,509
9884,509
9885,509
9886,509
9887,509
9888,508
9889,508
9890,508
9891,507
9892,507
9893,507
9894,507
9895,507
9896,507
9897,507
9898,507
9899,507
9900,507
9901,507
9902,507
9903,508
9904,508
9905,507
9906,506
9907,507
9908,506
9909,506
9910,506
9911,507
9912,506
9913,507
9914,507
9915,507
9916,508
9917,508
9918,508
9919,508
9920,507
9921,507
9922,507
9923,507
9924,507
9925,507
9926,507
9927,506
9928,506
9929,506
9930,506
9931,507
9932,506
9933,505
9934,505
9935,505
9936,504
9937,502
9938,501
9939,499
9940,498
9941,496
9942,496
9943,494
9944,493
9945,491
9946,490
9947,488
9948,487
9949,486
9950,485
9951,484
9952,483
9953,481
9954,480
9955,480
9956,479
9957,479
9958,478
9959,477
9960,476
9961,477
9962,477
9963,476
9964,476
9965,475
9966,475
9967,475
9968,474
9969,474
9970,474
9971,475
9972,475
9973,475
9974,476
9975,476
9976,476
9977,476
9978,476
9979,477
9980,476
9981,476
9982,477
9983,478
9984,479
9985,479
9986,480
9987,481
9988,482
9989,483
9990,484
9991,486
9992,487
9993,488
9994,490
9995,491
9996,492
9997,493
9998,494
9999,495
10000,495
10001,497
10002,499
10003,500
10004,502
10005,503
10006,505
10007,506
10008,508
10009,509
10010,511
10011,512
10012,514
10013,515
10014,516
10015,518
10016,518
10017,519
10018,519
10019,519
10020,519
10021,519
10022,519
10023,519
10024,518
10025,518
10026,518
10027,518
10028,518
10029,519
10030,518
10031,518
10032,518
10033,518
10034,518
10035,519
10036,519
10037,519
10038,518
10039,519
10040,519
10041,518
10042,518
10043,517
10044,517
10045,517
10046,516
10047,516
10048,515
10049,515
10050,515
10051,516
10052,516
10053,516
10054,516
10055,517
10056,516
10057,517
10058,516
10059,516
10060,515
10061,515
10062,515
10063,515
10064,514
10065,514
10066,514
10067,514
10068,514
10069,515
10070,515
10071,514
10072,514
10073,513
10074,513
10075,512
10076,513
10077,513
10078,513
10079,513
10080,513
10081,513
10082,513
10083,512
10084,513
10085,512
10086,512
10087,512
10088,512
10089,512
10090,512
10091,512
10092,512
10093,512
10094,513
10095,515
10096,517
10097,521
10098,524
10099,529
10100,533
10101,538
10102,541
10103,547
10104,551
10105,556
10106,559
10107,555
10108,549
10109,539
10110,528
10111,515
10112,504
10113,488
10114,475
10115,458
10116,446
10117,429
10118,415
10119,398
10120,384
10121,367
10122,354
10123,338
10124,324
10125,308
10126,297
10127,281
10128,268
10129,254
10130,243
10131,235
10132,231
10133,227
10134,228
10135,236
10136,244
10137,260
10138,274
10139,293
10140,310
10141,331
10142,349
10143,371
10144,390
10145,412
10146,429
10147,451
10148,470
10149,492
10150,511
10151,532
10152,549
10153,570
10154,588
10155,609
10156,625
10157,646
10158,661
10159,666
10160,670
10161,667
10162,664
10163,657
10164,650
10165,639
10166,631
10167,619
10168,609
10169,597
10170,587
10171,579
10172,573
10173,569
10174,566
10175,564
10176,561
10177,559
10178,557
10179,555
10180,554
10181,552
10182,551
10183,551
10184,550
10185,548
10186,547
10187,547
10188,546
10189,545
10190,545
10191,545
10192,544
10193,543
10194,543
10195,542
10196,542
10197,540
10198,539
10199,539
10200,539
10201,539
10202,538
10203,537
10204,536
10205,536
10206,535
10207,535
10208,534
10209,534
10210,533
10211,532
10212,531
10213,530
10214,529
10215,528
10216,528
10217,527
10218,527
10219,527
10220,526
10221,526
10222,526
10223,525
10224,525
10225,524
10226,524
10227,523
10228,522
10229,521
10230,521
10231,520
10232,519
10233,519
10234,519
10235,518
10236,517
10237,517
10238,516
10239,516
10240,515
10241,514
10242,513
10243,512
10244,512
10245,512
10246,511
10247,511
10248,510
10249,510
10250,509
10251,509
10252,508
10253,508
10254,507
10255,508
10256,507
10257,506
10258,506
10259,505
10260,505
10261,504
10262,504
10263,503
10264,503
10265,503
10266,503
10267,503
10268,502
10269,502
10270,501
10271,500
10272,500
10273,500
10274,499
10275,498
10276,497
10277,497
10278,497
10279,497
10280,497
10281,496
10282,496
10283,496
10284,496
10285,494
10286,494
10287,493
10288,492
10289,492
10290,492
10291,492
10292,492
10293,492
10294,492
10295,493
10296,492
10297,492
10298,492
10299,492
10300,490
10301,490
10302,491
10303,490
10304,490
10305,489
10306,489
10307,489
10308,488
10309,488
10310,488
10311,488
10312,488
10313,488
10314,488
10315,487
10316,486
10317,486
10318,485
10319,485
10320,484
10321,484
10322,484
10323,484
10324,484
10325,484
10326,483
10327,483
10328,483
10329,483
10330,483
10331,483
10332,483
10333,483
10334,483
10335,481
10336,481
10337,480
10338,479
10339,478
10340,477
10341,477
10342,477
10343,476
10344,475
10345,474
10346,473
10347,472
10348,472
10349,470
10350,469
10351,469
10352,469
10353,468
10354,467
10355,467
10356,467
10357,466
10358,466
10359,466
10360,466
10361,466
10362,466
10363,465
10364,465
10365,465
10366,464
10367,466
10368,467
10369,468
10370,470
10371,472
10372,472
10373,473
10374,475
10375,477
10376,479
10377,480
10378,482
10379,483
10380,485
10381,487
10382,489
10383,491
10384,493
10385,494
10386,495
10387,496
10388,497
10389,499
10390,499
10391,501
10392,502
10393,502
10394,504
10395,504
10396,505
10397,506
10398,508
10399,511
10400,512
10401,515
10402,516
10403,519
10404,522
10405,525
10406,528
10407,531
10408,533
10409,536
10410,539
10411,543
10412,546
10413,550
10414,552
10415,555
10416,556
10417,558
10418,559
10419,560
10420,561
10421,561
10422,562
10423,563
10424,563
10425,565
10426,566
10427,566
10428,567
10429,568
10430,568
10431,568
10432,568
10433,568
10434,568
10435,567
10436,568
10437,568
10438,567
10439,566
10440,566
10441,565
10442,563
10443,563
10444,563
10445,562
10446,562
10447,561
10448,561
10449,560
10450,559
10451,558
10452,558
10453,558
10454,557
10455,556
10456,556
10457,556
10458,555
10459,554
10460,554
10461,553
10462,553
10463,553
10464,552
10465,551
10466,551
10467,550
10468,550
10469,549
10470,548
10471,548
10472,547
10473,547
10474,547
10475,545
10476,545
10477,545
10478,544
10479,544
10480,543
10481,543
10482,543
10483,542
10484,542
10485,542
10486,542
10487,541
10488,540
10489,540
10490,539
10491,538
10492,537
10493,537
10494,537
10495,537
10496,537
10497,537
10498,536
10499,536
10500,535
10501,534
10502,534
10503,534
10504,534
10505,534
10506,532
10507,531
10508,531
10509,531
10510,531
10511,531
10512,530
10513,530
10514,530
10515,530
10516,531
10517,531
10518,530
10519,529
10520,529
10521,529
10522,529
10523,528
10524,528
10525,527
10526,527
10527,526
10528,526
10529,526
10530,526
10531,525
10532,524
10533,524
10534,524
10535,523
10536,523
10537,522
10538,522
10539,522
10540,522
10541,522
10542,522
10543,522
10544,522
10545,521
10546,520
10547,520
10548,520
10549,520
10550,520
10551,520
10552,520
10553,519
10554,519
10555,519
10556,519
10557,519
10558,519
10559,519
10560,519
10561,519
10562,518
10563,518
10564,518
10565,518
10566,517
10567,517
10568,517
10569,517
10570,516
10571,516
10572,516
10573,515
10574,515
10575,515
10576,514
10577,514
10578,514
10579,514
10580,514
10581,514
10582,514
10583,514
10584,513
10585,513
10586,513
10587,513
10588,512
10589,512
10590,513
10591,513
10592,512
10593,512
10594,512
10595,511
10596,512
10597,512
10598,511
10599,511
10600,512
10601,512
10602,512
10603,511
10604,511
10605,511
10606,510
10607,511
10608,511
10609,511
10610,510
10611,510
10612,510
10613,510
10614,510
10615,510
10616,509
10617,509
10618,509
10619,509
10620,509
10621,509
10622,510
10623,510
10624,509
10625,509
10626,508
10627,508
10628,508
10629,508
10630,508
10631,508
10632,508
10633,508
10634,508
10635,507
10636,508
10637,508
10638,508
10639,508
10640,508
10641,507
10642,507
10643,507
10644,507
10645,507
10646,507
10647,507
10648,506
10649,507
10650,508
10651,508
10652,507
10653,507
10654,507
10655,507
10656,507
10657,507
10658,507
10659,507
10660,507
10661,507
10662,507
10663,506
10664,506
10665,506
10666,505
10667,505
10668,505
10669,504
10670,504
10671,505
10672,504
10673,504
10674,505
10675,504
10676,504
10677,505
10678,505
10679,505
10680,504
10681,504
10682,503
10683,502
10684,501
10685,499
10686,499
10687,498
10688,496
10689,494
10690,492
10691,491
10692,489
10693,487
10694,486
10695,486
10696,484
10697,483
10698,481
10699,480
10700,479
10701,479
10702,478
10703,478
10704,477
10705,476
10706,475
10707,475
10708,475
10709,474
10710,474
10711,473
10712,473
10713,473
10714,473
10715,473
10716,474
10717,473
10718,474
10719,475
10720,475
10721,475
10722,475
10723,475
10724,475
10725,476
10726,477
10727,477
10728,478
10729,479
10730,480
10731,480
10732,481
10733,482
10734,483
10735,484
10736,485
10737,486
10738,487
10739,487
10740,488
10741,489
10742,490
10743,492
10744,493
10745,495
10746,496
10747,497
10748,498
10749,499
10750,501
10751,503
10752,504
10753,506
10754,508
10755,509
10756,511
10757,512
10758,513
10759,515
10760,517
10761,518
10762,519
10763,519
10764,520
10765,520
10766,520
10767,519
10768,519
10769,519
10770,519
10771,519
10772,519
10773,519
10774,519
10775,518
10776,519
10777,519
10778,519
10779,519
10780,518
10781,518
10782,517
10783,517
10784,518
10785,518
10786,518
10787,518
10788,518
10789,516
10790,516
10791,516
10792,516
10793,516
10794,516
10795,517
10796,517
10797,517
10798,516
10799,516
10800,516
10801,516
10802,516
10803,515
10804,515
10805,515
10806,515
10807,515
10808,515
10809,515
10810,515
10811,515
10812,515
10813,515
10814,515
10815,515
10816,515
10817,515
10818,514
10819,514
10820,514
10821,514
10822,514
10823,514
10824,514
10825,513
10826,513
10827,513
10828,513
10829,513
10830,513
10831,513
10832,513
10833,513
10834,513
10835,513
10836,513
10837,513
10838,512
10839,512
10840,513
10841,515
10842,517
10843,521
10844,524
10845,529
10846,532
10847,537
10848,542
10849,547
10850,551
10851,556
10852,560
10853,555
10854,549
10855,539
10856,530
10857,516
10858,504
10859,489
10860,476
10861,460
10862,447
10863,430
10864,416
10865,400
10866,387
10867,370
10868,356
10869,340
10870,327
10871,311
10872,299
10873,284
10874,271
10875,256
10876,244
10877,236
10878,231
10879,228
10880,227
10881,236
10882,244
10883,259
10884,274
10885,293
10886,309
10887,329
10888,348
10889,370
10890,388
10891,411
10892,428
10893,450
10894,468
10895,490
10896,507
10897,528
10898,547
10899,568
10900,586
10901,606
10902,623
10903,643
10904,656
10905,663
10906,667
10907,664
10908,660
10909,654
10910,647
10911,637
10912,630
10913,619
10914,608
10915,596
10916,587
10917,579
10918,572
10919,568
10920,565
10921,562
10922,559
10923,557
10924,555
10925,553
10926,552
10927,551
10928,550
10929,548
10930,548
10931,547
10932,547
10933,547
10934,546
10935,546
10936,545
10937,545
10938,544
10939,543
10940,543
10941,542
10942,542
10943,540
10944,540
10945,539
10946,539
10947,538
10948,537
10949,536
10950,536
10951,536
10952,535
10953,534
10954,533
10955,532
10956,532
10957,531
10958,531
10959,531
10960,530
10961,530
10962,529
10963,529
10964,528
10965,527
10966,527
10967,527
10968,526
10969,524
10970,523
10971,523
10972,522
10973,522
10974,522
10975,522
10976,521
10977,520
10978,520
10979,519
10980,519
10981,518
10982,517
10983,516
10984,516
10985,515
10986,515
10987,514
10988,514
10989,513
10990,512
10991,512
10992,511
10993,510
10994,509
10995,509
10996,508
10997,508
10998,508
10999,507
11000,506
11001,505
11002,505
11003,505
11004,505
11005,504
11006,504
11007,504
11008,504
11009,503
11010,502
11011,502
11012,502
11013,501
11014,500
11015,500
11016,499
11017,499
11018,499
11019,499
11020,499
11021,498
11022,498
11023,497
11024,497
11025,496
11026,496
11027,496
11028,496
11029,495
11030,494
11031,494
11032,492
11033,492
11034,492
11035,491
11036,492
11037,491
11038,490
11039,490
11040,490
11041,489
11042,489
11043,489
11044,490
11045,489
11046,489
11047,489
11048,489
11049,488
11050,488
11051,488
11052,488
11053,488
11054,487
11055,487
11056,487
11057,487
11058,486
11059,486
11060,486
11061,486
11062,486
11063,486
11064,485
11065,485
11066,485
11067,484
11068,484
11069,484
11070,485
11071,485
11072,485
11073,484
11074,484
11075,483
11076,484
11077,484
11078,484
11079,484
11080,484
11081,483
11082,483
11083,482
11084,481
11085,481
11086,480
11087,480
11088,479
11089,477
11090,476
11091,475
11092,475
11093,474
11094,472
11095,472
11096,471
11097,470
11098,470
11099,469
11100,468
11101,468
11102,468
11103,467
11104,467
11105,467
11106,467
11107,466
11108,466
11109,466
11110,465
11111,464
11112,465
11113,465
11114,466
11115,467
11116,468
11117,470
11118,472
11119,473
11120,476
11121,478
11122,480
11123,481
11124,483
11125,484
11126,486
11127,488
11128,489
11129,491
11130,492
11131,493
11132,494
11133,495
11134,496
11135,498
11136,499
11137,500
11138,501
11139,503
11140,504
11141,505
11142,505
11143,507
11144,507
11145,510
11146,511
11147,513
11148,515
11149,519
11150,522
11151,525
11152,527
11153,531
11154,533
11155,537
11156,539
11157,543
11158,545
11159,549
11160,551
11161,554
11162,556
11163,558
11164,560
11165,561
11166,562
11167,563
11168,563
11169,564
11170,565
11171,566
11172,567
11173,567
11174,568
11175,568
11176,568
11177,569
11178,569
11179,569
11180,569
11181,568
11182,568
11183,567
11184,567
11185,566
11186,565
11187,564
11188,563
11189,562
11190,562
11191,561
11192,561
11193,561
11194,560
11195,560
11196,560
11197,559
11198,559
11199,558
11200,558
11201,556
11202,556
11203,556
11204,555
11205,555
11206,554
11207,553
11208,552
11209,552
11210,551
11211,551
11212,550
11213,549
11214,548
11215,548
11216,547
11217,546
11218,545
11219,545
11220,545
11221,544
11222,543
11223,543
11224,543
11225,543
11226,543
11227,541
11228,541
11229,540
11230,540
11231,539
11232,538
11233,537
11234,537
11235,537
11236,537
11237,537
11238,537
11239,536
11240,536
11241,535
11242,535
11243,534
11244,534
11245,533
11246,533
11247,533
11248,532
11249,531
11250,531
11251,531
11252,530
11253,530
11254,530
11255,530
11256,530
11257,530
11258,529
11259,530
11260,529
11261,529
11262,528
11263,528
11264,528
11265,527
11266,527
11267,527
11268,526
11269,526
11270,525
11271,525
11272,524
11273,524
11274,524
11275,523
11276,523
11277,523
11278,522
11279,522
11280,521
11281,522
11282,522
11283,522
11284,522
11285,522
11286,521
11287,521
11288,520
11289,520
11290,520
11291,520
11292,519
11293,519
11294,519
11295,520
11296,519
11297,519
11298,519
11299,519
11300,519
11301,518
11302,518
11303,518
11304,518
11305,517
11306,516
11307,517
11308,516
11309,517
11310,517
11311,517
11312,517
11313,517
11314,516
11315,516
11316,516
11317,515
11318,515
11319,515
11320,514
11321,514
11322,514
11323,514
11324,514
11325,514
11326,514
11327,514
11328,514
11329,514
11330,514
11331,513
11332,513
11333,512
11334,513
11335,512
11336,512
11337,512
11338,512
11339,512
11340,512
11341,512
11342,512
11343,512
11344,512
11345,512
11346,512
11347,512
11348,512
11349,512
11350,512
11351,512
11352,512
11353,512
11354,512
11355,511
11356,511
11357,510
11358,511
11359,511
11360,510
11361,510
11362,510
11363,510
11364,510
11365,510
11366,510
11367,510
11368,510
11369,510
11370,510
11371,509
11372,509
11373,508
11374,508
11375,508
11376,508
11377,508
11378,508
11379,508
11380,508
11381,508
11382,509
11383,509
11384,508
11385,508
11386,508
11387,507
11388,506
11389,507
11390,507
11391,507
11392,507
11393,508
11394,508
11395,507
11396,507
11397,507
11398,507
11399,507
11400,505
11401,505
11402,505
11403,505
11404,504
11405,505
11406,505
11407,506
11408,506
11409,505
11410,505
11411,505
11412,505
11413,505
11414,506
11415,506
11416,506
11417,507
11418,506
11419,506
11420,506
11421,506
11422,505
11423,505
11424,505
11425,506
11426,505
11427,504
11428,504
11429,503
11430,502
11431,500
11432,499
11433,497
11434,496
11435,494
11436,492
11437,491
11438,489
11439,488
11440,487
11441,485
11442,484
11443,483
11444,482
11445,482
11446,481
11447,480
11448,479
11449,479
11450,478
11451,478
11452,477
11453,476
11454,476
11455,475
11456,475
11457,474
11458,473
11459,473
11460,473
11461,474
11462,474
11463,475
11464,475
11465,476
11466,476
11467,477
11468,476
11469,476
11470,477
11471,478
11472,478
11473,478
11474,478
11475,479
11476,480
11477,480
11478,481
11479,482
11480,482
11481,484
11482,485
11483,487
11484,487
11485,488
11486,489
11487,491
11488,492
11489,494
11490,495
11491,496
11492,497
11493,499
11494,501
11495,502
11496,504
11497,505
11498,507
11499,508
11500,510
11501,511
11502,512
11503,514
11504,516
11505,518
11506,519
11507,520
11508,521
11509,522
11510,522
11511,523
11512,522
11513,522
11514,522
11515,522
11516,521
11517,521
11518,521
11519,522
11520,522
11521,522
11522,522
11523,521
11524,521
11525,520
11526,520
11527,520
11528,520
11529,520
11530,520
11531,520
11532,519
11533,519
11534,519
11535,519
11536,518
11537,518
11538,518
11539,518
11540,518
11541,517
11542,518
11543,517
11544,518
11545,517
11546,517
11547,516
11548,516
11549,516
11550,516
11551,516
11552,515
11553,515
11554,515
11555,515
11556,515
11557,515
11558,515
11559,515
11560,515
11561,515
11562,515
11563,515
11564,514
11565,513
11566,513
11567,513
11568,513
11569,513
11570,513
11571,513
11572,513
11573,513
11574,513
11575,513
11576,513
11577,513
11578,513
11579,513
11580,513
11581,513
11582,513
11583,513
11584,513
11585,513
11586,513
11587,515
11588,517
11589,521
11590,525
11591,530
11592,533
11593,538
11594,543
11595,548
11596,552
11597,558
11598,560
11599,555
11600,550
11601,539
11602,530
11603,516
11604,504
11605,489
11606,477
11607,460
11608,447
11609,431
11610,415
11611,399
11612,386
11613,369
11614,356
11615,339
11616,326
11617,310
11618,297
11619,281
11620,268
11621,252
11622,241
11623,233
11624,229
11625,225
11626,224
11627,233
11628,243
11629,259
11630,273
11631,292
11632,307
11633,328
11634,346
11635,368
11636,386
11637,408
11638,427
11639,449
11640,469
11641,491
11642,508
11643,530
11644,548
11645,570
11646,586
11647,607
11648,624
11649,644
11650,658
11651,664
11652,667
11653,665
11654,662
11655,655
11656,649
11657,639
11658,630
11659,618
11660,609
11661,596
11662,587
11663,580
11664,574
11665,569
11666,566
11667,562
11668,560
11669,558
11670,556
11671,554
11672,552
11673,551
11674,551
11675,550
11676,549
11677,548
11678,547
11679,546
11680,545
11681,545
11682,544
11683,543
11684,543
11685,542
11686,542
11687,542
11688,541
11689,540
11690,540
11691,539
11692,539
11693,538
11694,538
11695,537
11696,537
11697,536
11698,536
11699,535
11700,534
11701,534
11702,533
11703,532
11704,531
11705,531
11706,530
11707,530
11708,530
11709,529
11710,529
11711,528
11712,528
11713,527
11714,526
11715,525
11716,524
11717,523
11718,523
11719,523
11720,521
11721,521
11722,520
11723,519
11724,520
11725,520
11726,519
11727,518
11728,517
11729,516
11730,515
11731,515
11732,514
11733,513
11734,512
11735,512
11736,512
11737,511
11738,511
11739,510
11740,509
11741,508
11742,508
11743,508
11744,507
11745,507
11746,506
11747,504
11748,504
11749,504
11750,504
11751,504
11752,504
11753,503
11754,503
11755,502
11756,502
11757,502
11758,502
11759,501
11760,500
11761,500
11762,500
11763,499
11764,499
11765,498
11766,498
11767,497
11768,497
11769,497
11770,496
11771,496
11772,495
11773,495
11774,494
11775,494
11776,494
11777,493
11778,492
11779,492
11780,492
11781,492
11782,492
11783,491
11784,491
11785,490
11786,490
11787,490
11788,490
11789,490
11790,490
11791,490
11792,490
11793,490
11794,489
11795,489
11796,489
11797,488
11798,488
11799,487
11800,487
11801,487
11802,487
11803,487
11804,486
11805,486
11806,486
11807,486
11808,486
11809,485
11810,485
11811,484
11812,484
11813,484
11814,484
11815,483
11816,483
11817,483
11818,483
11819,483
11820,484
11821,483
11822,483
11823,483
11824,484
11825,483
11826,483
11827,483
11828,482
11829,481
11830,480
11831,480
11832,480
11833,479
11834,477
11835,476
11836,476
11837,474
11838,473
11839,473
11840,472
11841,470
11842,470
11843,468
11844,468
11845,468
11846,468
11847,467
11848,467
11849,467
11850,467
11851,466
11852,466
11853,466
11854,466
11855,466
11856,466
11857,465
11858,465
11859,466
11860,467
11861,468
11862,470
11863,472
11864,473
11865,475
11866,476
11867,478
11868,479
11869,481
11870,482
11871,484
11872,485
11873,487
11874,488
11875,491
11876,492
11877,494
11878,494
11879,496
11880,496
11881,498
11882,499
11883,500
11884,501
11885,503
11886,503
11887,504
11888,505
11889,507
11890,508
11891,509
11892,511
11893,513
11894,515
11895,519
11896,522
11897,525
11898,528
11899,531
11900,534
11901,538
11902,541
11903,544
11904,548
11905,551
11906,554
11907,556
11908,557
11909,559
11910,560
11911,562
11912,564
11913,564
11914,565
11915,565
11916,566
11917,567
11918,567
11919,568
11920,568
11921,568
11922,569
11923,569
11924,569
11925,569
11926,569
11927,568
11928,567
11929,567
11930,567
11931,567
11932,567
11933,565
11934,564
11935,564
11936,563
11937,562
11938,561
11939,560
11940,560
11941,560
11942,560
11943,559
11944,558
11945,558
11946,558
11947,557
11948,556
11949,556
11950,555
11951,554
11952,553
11953,552
11954,551
11955,551
11956,551
11957,550
11958,550
11959,550
11960,550
11961,549
11962,549
11963,548
11964,547
11965,547
11966,547
11967,547
11968,546
11969,546
11970,545
11971,545
11972,545
11973,544
11974,542
11975,541
11976,542
11977,541
11978,540
11979,540
11980,540
11981,540
11982,540
11983,539
11984,539
11985,539
11986,538
11987,538
11988,538
11989,537
11990,537
11991,537
11992,536
11993,536
11994,535
11995,534
11996,534
11997,533
11998,532
11999,532
12000,531
12001,530
12002,529
12003,529
12004,529
12005,528
12006,528
12007,528
12008,528
12009,527
12010,527
12011,527
12012,527
12013,526
12014,525
12015,525
12016,525
12017,525
12018,525
12019,524
12020,524
12021,524
12022,524
12023,524
12024,524
12025,524
12026,524
12027,524
12028,524
12029,524
12030,524
12031,523
12032,523
12033,522
12034,522
12035,521
12036,522
12037,521
12038,521
12039,522
12040,521
12041,521
12042,520
12043,520
12044,520
12045,519
12046,519
12047,519
12048,519
12049,519
12050,518
12051,517
12052,518
12053,518
12054,518
12055,518
12056,518
12057,518
12058,518
12059,518
12060,517
12061,516
12062,516
12063,515
12064,515
12065,515
12066,515
12067,514
12068,514
12069,515
12070,515
12071,515
12072,515
12073,515
12074,515
12075,514
12076,514
12077,514
12078,514
12079,514
12080,514
12081,514
12082,514
12083,513
12084,513
12085,513
12086,513
12087,513
12088,513
12089,513
12090,513
12091,513
12092,512
12093,512
12094,512
12095,512
12096,512
12097,512
12098,512
12099,511
12100,511
12101,511
12102,511
12103,510
12104,509
12105,509
12106,509
12107,509
12108,509
12109,509
12110,508
12111,508
12112,508
12113,508
12114,508
12115,508
12116,508
12117,508
12118,507
12119,507
12120,508
12121,507
12122,507
12123,507
12124,507
12125,506
12126,506
12127,507
12128,506
12129,507
12130,507
12131,506
12132,507
12133,507
12134,507
12135,507
12136,507
12137,507
12138,506
12139,507
12140,507
12141,506
12142,506
12143,505
12144,506
12145,505
12146,505
12147,505
12148,505
12149,505
12150,505
12151,505
12152,505
12153,505
12154,505
12155,505
12156,505
12157,505
12158,505
12159,505
12160,504
12161,504
12162,505
12163,505
12164,505
12165,505
12166,505
12167,505
12168,505
12169,506
12170,506
12171,506
12172,505
12173,504
12174,503
12175,502
12176,501
12177,500
12178,498
12179,497
12180,495
12181,493
12182,491
12183,489
12184,488
12185,487
12186,486
12187,484
12188,483
12189,481
12190,481
12191,479
12192,479
12193,479
12194,479
12195,478
12196,478
12197,477
12198,476
12199,476
12200,475
12201,474
12202,474
12203,473
12204,473
12205,472
12206,472
12207,472
12208,472
12209,472
12210,472
12211,472
12212,473
12213,473
12214,473
12215,474
12216,474
12217,475
12218,475
12219,476
12220,476
12221,477
12222,478
12223,479
12224,480
12225,481
12226,483
12227,484
12228,484
12229,486
12230,486
12231,487
12232,488
12233,490
12234,491
12235,492
12236,493
12237,494
12238,495
12239,497
12240,498
12241,500
12242,502
12243,503
12244,505
12245,507
12246,508
12247,510
12248,511
12249,512
12250,514
12251,515
12252,517
12253,518
12254,519
12255,519
12256,519
12257,519
12258,519
12259,519
12260,519
12261,519
12262,518
12263,519
12264,519
12265,519
12266,519
12267,520
12268,520
12269,520
12270,520
12271,520
12272,520
12273,520
12274,519
12275,519
12276,519
12277,519
12278,517
12279,517
12280,517
12281,516
12282,517
12283,516
12284,517
12285,517
12286,517
12287,517
12288,517
12289,516
12290,516
12291,516
12292,516
12293,516
12294,516
12295,516
12296,515
12297,515
12298,514
12299,515
12300,514
12301,515
12302,515
12303,514
12304,513
12305,513
12306,513
12307,513
12308,512
12309,513
12310,513
12311,513
12312,513
12313,512
12314,512
12315,512
12316,512
12317,512
12318,511
12319,512
12320,512
12321,512
12322,512
12323,512
12324,512
12325,512
12326,512
12327,512
12328,512
12329,512
12330,512
12331,512
12332,512
12333,515
12334,518
12335,522
12336,525
12337,529
12338,533
12339,539
12340,543
12341,548
12342,552
12343,558
12344,560
12345,555
12346,551
12347,540
12348,531
12349,517
12350,505
12351,489
12352,477
12353,461
12354,447
12355,430
12356,417
12357,401
12358,387
12359,370
12360,356
12361,339
12362,327
12363,311
12364,298
12365,283
12366,271
12367,256
12368,245
12369,237
12370,232
12371,230
12372,228
12373,237
12374,245
12375,260
12376,272
12377,291
12378,307
12379,329
12380,347
12381,370
12382,387
12383,410
12384,429
12385,451
12386,469
12387,491
12388,510
12389,532
12390,551
12391,571
12392,587
12393,608
12394,625
12395,645
12396,660
12397,665
12398,669
12399,666
12400,663
12401,655
12402,649
12403,639
12404,630
12405,619
12406,611
12407,598
12408,589
12409,581
12410,575
12411,570
12412,566
12413,563
12414,560
12415,557
12416,556
12417,554
12418,553
12419,551
12420,550
12421,549
12422,548
12423,548
12424,547
12425,547
12426,546
12427,545
12428,545
12429,545
12430,544
12431,543
12432,542
12433,542
12434,541
12435,541
12436,540
12437,539
12438,539
12439,539
12440,538
12441,538
12442,536
12443,536
12444,536
12445,535
12446,534
12447,533
12448,533
12449,532
12450,531
12451,531
12452,530
12453,529
12454,529
12455,529
12456,528
12457,527
12458,526
12459,526
12460,526
12461,525
12462,525
12463,525
12464,524
12465,524
12466,523
12467,522
12468,521
12469,520
12470,519
12471,519
12472,519
12473,518
12474,518
12475,517
12476,516
12477,516
12478,515
12479,515
12480,513
12481,512
12482,512
12483,511
12484,511
12485,510
12486,511
12487,510
12488,509
12489,509
12490,508
12491,507
12492,507
12493,506
12494,506
12495,506
12496,505
12497,504
12498,504
12499,504
12500,503
12501,502
12502,502
12503,502
12504,501
12505,502
12506,502
12507,502
12508,501
12509,500
12510,500
12511,500
12512,499
12513,498
12514,498
12515,497
12516,497
12517,497
12518,497
12519,497
12520,496
12521,496
12522,495
12523,495
12524,494
12525,494
12526,494
12527,494
12528,493
12529,494
12530,492
12531,492
12532,492
12533,492
12534,491
12535,491
12536,491
12537,491
12538,490
12539,491
12540,490
12541,490
12542,489
12543,489
12544,489
12545,488
12546,488
12547,487
12548,487
12549,486
12550,486
12551,486
12552,486
12553,485
12554,484
12555,484
12556,484
12557,485
12558,485
12559,485
12560,484
12561,484
12562,484
12563,484
12564,485
12565,484
12566,485
12567,484
12568,484
12569,484
12570,484
12571,484
12572,484
12573,484
12574,483
12575,483
12576,482
12577,481
12578,480
12579,479
12580,478
12581,478
12582,478
12583,477
12584,476
12585,473
12586,473
12587,472
12588,472
12589,471
12590,470
12591,470
12592,469
12593,468
12594,467
12595,467
12596,467
12597,466
12598,466
12599,467
12600,467
12601,467
12602,467
12603,466
12604,465
12605,466
12606,467
12607,468
12608,469
12609,471
12610,473
12611,475
12612,476
12613,478
12614,480
12615,482
12616,483
12617,484
12618,485
12619,487
12620,488
12621,489
12622,491
12623,492
12624,494
12625,496
12626,497
12627,498
12628,499
12629,500
12630,501
12631,503
12632,504
12633,504
12634,504
12635,506
12636,507
12637,509
12638,510
12639,513
12640,516
12641,519
12642,522
12643,526
12644,528
12645,531
12646,535
12647,539
12648,541
12649,544
12650,546
12651,550
12652,552
12653,554
12654,556
12655,558
12656,559
12657,560
12658,561
12659,563
12660,563
12661,564
12662,565
12663,566
12664,566
12665,567
12666,567
12667,567
12668,567
12669,568
12670,568
12671,568
12672,568
12673,567
12674,567
12675,567
12676,567
12677,566
12678,565
12679,565
12680,563
12681,563
12682,563
12683,562
12684,561
12685,560
12686,560
12687,560
12688,559
12689,558
12690,558
12691,558
12692,557
12693,556
12694,556
12695,555
12696,554
12697,553
12698,552
12699,552
12700,552
12701,551
12702,551
12703,551
12704,550
12705,550
12706,550
12707,549
12708,549
12709,548
12710,547
12711,547
12712,546
12713,545
12714,545
12715,544
12716,543
12717,543
12718,543
12719,544
12720,543
12721,543
12722,543
12723,542
12724,541
12725,540
12726,540
12727,540
12728,539
12729,538
12730,538
12731,538
12732,538
12733,539
12734,538
12735,537
12736,536
12737,536
12738,535
12739,535
12740,534
12741,534
12742,532
12743,532
12744,532
12745,532
12746,532
12747,532
12748,531
12749,531
12750,531
12751,530
12752,530
12753,529
12754,529
12755,529
12756,529
12757,528
12758,527
12759,527
12760,527
12761,527
12762,526
12763,525
12764,526
12765,525
12766,525
12767,525
12768,524
12769,524
12770,524
12771,524
12772,524
12773,524
12774,524
12775,524
12776,523
12777,524
12778,523
12779,523
12780,523
12781,522
12782,522
12783,522
12784,522
12785,521
12786,521
12787,521
12788,520
12789,520
12790,519
12791,518
12792,518
12793,518
12794,517
12795,516
12796,517
12797,516
12798,516
12799,516
12800,516
12801,516
12802,515
12803,515
12804,516
12805,516
12806,516
12807,516
12808,516
12809,516
12810,515
12811,515
12812,516
12813,515
12814,515
12815,515
12816,514
12817,514
12818,513
12819,514
12820,514
12821,514
12822,514
12823,514
12824,513
12825,513
12826,513
12827,513
12828,512
12829,512
12830,512
12831,511
12832,511
12833,512
12834,512
12835,511
12836,511
12837,512
12838,511
12839,512
12840,512
12841,512
12842,512
12843,511
12844,511
12845,511
12846,511
12847,511
12848,510
12849,511
12850,510
12851,510
12852,510
12853,510
12854,510
12855,510
12856,510
12857,510
12858,509
12859,510
12860,509
12861,508
12862,508
12863,508
12864,508
12865,508
12866,507
12867,507
12868,507
12869,507
12870,507
12871,508
12872,508
12873,508
12874,507
12875,507
12876,507
12877,506
12878,506
12879,507
12880,507
12881,506
12882,507
12883,507
12884,507
12885,507
12886,506
12887,506
12888,506
12889,506
12890,507
12891,507
12892,507
12893,507
12894,507
12895,507
12896,506
12897,506
12898,507
12899,507
12900,506
12901,506
12902,506
12903,506
12904,506
12905,505
12906,505
12907,505
12908,505
12909,505
12910,505
12911,505
12912,505
12913,505
12914,506
12915,506
12916,506
12917,506
12918,505
12919,504
12920,504
12921,503
12922,502
12923,501
12924,501
12925,499
12926,498
12927,496
12928,494
12929,492
12930,491
12931,489
12932,488
12933,486
12934,485
12935,484
12936,483
12937,482
12938,481
12939,481
12940,480
12941,479
12942,479
12943,478
12944,477
12945,477
12946,476
12947,476
12948,475
12949,475
12950,475
12951,475
12952,474
12953,473
12954,473
12955,473
12956,474
12957,474
12958,474
12959,475
12960,475
12961,475
12962,476
12963,476
12964,477
12965,478
12966,478
12967,478
12968,479
12969,480
12970,481
12971,482
12972,483
12973,484
12974,485
12975,486
12976,487
12977,487
12978,488
12979,489
12980,491
12981,492
12982,492
12983,494
12984,496
12985,497
12986,499
12987,500
12988,502
12989,504
12990,505
12991,508
12992,509
12993,511
12994,513
12995,515
12996,515
12997,517
12998,519
12999,519
13000,520
13001,520
13002,521
13003,521
13004,521
13005,522
13006,521
13007,521
13008,520
13009,520
13010,519
13011,519
13012,519
13013,519
13014,519
13015,519
13016,519
13017,518
13018,518
13019,518
13020,517
13021,517
13022,517
13023,517
13024,517
13025,518
13026,518
13027,518
13028,518
13029,518
13030,517
13031,517
13032,516
13033,516
13034,516
13035,516
13036,516
13037,516
13038,515
13039,516
13040,516
13041,515
13042,515
13043,515
13044,515
13045,515
13046,515
13047,514
13048,513
13049,513
13050,513
13051,512
13052,513
13053,513
13054,513
13055,513
13056,513
13057,512
13058,513
13059,512
13060,512
13061,512
13062,512
13063,512
13064,512
13065,511
13066,512
13067,512
13068,511
13069,511
13070,511
13071,511
13072,511
13073,511
13074,511
13075,511
13076,511
13077,511
13078,511
13079,514
13080,515
13081,519
13082,522
13083,527
13084,531
13085,536
13086,540
13087,546
13088,550
13089,555
13090,558
13091,553
13092,549
13093,539
13094,529
13095,515
13096,505
13097,490
13098,477
13099,460
13100,446
13101,429
13102,416
13103,400
13104,387
13105,370
13106,358
13107,341
13108,327
