timestamp,Signal
0,0.1435546875
1,0.140625
2,0.140625
3,0.140625
4,0.1376953125
5,0.13476562499999997
6,0.1318359375
7,0.13476562499999997
8,0.1318359375
9,0.1318359375
10,0.1318359375
11,0.1259765625
12,0.1259765625
13,0.123046875
14,0.12011718749999999
15,0.12011718749999999
16,0.1171875
17,0.1142578125
18,0.1142578125
19,0.1142578125
20,0.11132812499999999
21,0.11132812499999999
22,0.1083984375
23,0.1083984375
24,0.10546875
25,0.10546875
26,0.10546875
27,0.1025390625
28,0.099609375
29,0.09667968749999999
30,0.09667968749999999
31,0.09667968749999999
32,0.09374999999999999
33,0.09374999999999999
34,0.0908203125
35,0.0908203125
36,0.0908203125
37,0.087890625
38,0.087890625
39,0.087890625
40,0.087890625
41,0.0849609375
42,0.08203124999999999
43,0.07910156249999999
44,0.07910156249999999
45,0.08203124999999999
46,0.07910156249999999
47,0.076171875
48,0.0732421875
49,0.0732421875
50,0.0703125
51,0.0703125
52,0.0703125
53,0.06738281249999999
54,0.06738281249999999
55,0.06738281249999999
56,0.06445312499999999
57,0.06445312499999999
58,0.0615234375
59,0.05859375
60,0.05859375
61,0.05566406249999999
62,0.05566406249999999
63,0.05566406249999999
64,0.05566406249999999
65,0.052734375
66,0.052734375
67,0.0498046875
68,0.0498046875
69,0.0498046875
70,0.0498046875
71,0.04687499999999999
72,0.04687499999999999
73,0.04687499999999999
74,0.0439453125
75,0.0439453125
76,0.04101562499999999
77,0.04101562499999999
78,0.04101562499999999
79,0.0380859375
80,0.04101562499999999
81,0.0380859375
82,0.0380859375
83,0.0380859375
84,0.03515625
85,0.0380859375
86,0.0380859375
87,0.0380859375
88,0.0380859375
89,0.03515625
90,0.03515625
91,0.03222656249999999
92,0.03222656249999999
93,0.03222656249999999
94,0.029296875
95,0.029296875
96,0.0263671875
97,0.0263671875
98,0.0263671875
99,0.0263671875
100,0.0263671875
101,0.023437499999999997
102,0.023437499999999997
103,0.020507812499999997
104,0.020507812499999997
105,0.020507812499999997
106,0.020507812499999997
107,0.020507812499999997
108,0.020507812499999997
109,0.020507812499999997
110,0.020507812499999997
111,0.020507812499999997
112,0.020507812499999997
113,0.017578125
114,0.017578125
115,0.017578125
116,0.017578125
117,0.017578125
118,0.017578125
119,0.020507812499999997
120,0.020507812499999997
121,0.017578125
122,0.017578125
123,0.017578125
124,0.0146484375
125,0.011718749999999998
126,0.011718749999999998
127,0.011718749999999998
128,0.0087890625
129,0.0087890625
130,0.0087890625
131,0.0087890625
132,0.005859374999999999
133,0.005859374999999999
134,0.005859374999999999
135,0.0087890625
136,0.005859374999999999
137,0.005859374999999999
138,0.005859374999999999
139,0.0029296874999999996
140,0.005859374999999999
141,0.0029296874999999996
142,0.0029296874999999996
143,0.0029296874999999996
144,0.0
145,0.0029296874999999996
146,0.0
147,0.0
148,0.0029296874999999996
149,0.0
150,0.0
151,0.0
152,0.0
153,0.0
154,0.0
155,0.0
156,-0.0029296874999999996
157,-0.0029296874999999996
158,-0.0029296874999999996
159,-0.0029296874999999996
160,-0.0029296874999999996
161,-0.0029296874999999996
162,-0.005859374999999999
163,-0.005859374999999999
164,-0.005859374999999999
165,-0.005859374999999999
166,-0.005859374999999999
167,-0.005859374999999999
168,-0.005859374999999999
169,-0.005859374999999999
170,-0.0029296874999999996
171,-0.0029296874999999996
172,-0.0029296874999999996
173,-0.0029296874999999996
174,-0.0029296874999999996
175,-0.0029296874999999996
176,-0.0029296874999999996
177,-0.0029296874999999996
178,-0.0029296874999999996
179,-0.005859374999999999
180,-0.005859374999999999
181,-0.005859374999999999
182,-0.005859374999999999
183,-0.0087890625
184,-0.0087890625
185,-0.011718749999999998
186,-0.011718749999999998
187,-0.011718749999999998
188,-0.011718749999999998
189,-0.0146484375
190,-0.0146484375
191,-0.0146484375
192,-0.011718749999999998
193,-0.011718749999999998
194,-0.0146484375
195,-0.011718749999999998
196,-0.011718749999999998
197,-0.0146484375
198,-0.0146484375
199,-0.0146484375
200,-0.0146484375
201,-0.0146484375
202,-0.0146484375
203,-0.0146484375
204,-0.0146484375
205,-0.0146484375
206,-0.0146484375
207,-0.0146484375
208,-0.0146484375
209,-0.0146484375
210,-0.0146484375
211,-0.0146484375
212,-0.0146484375
213,-0.0146484375
214,-0.0146484375
215,-0.0146484375
216,-0.0146484375
217,-0.0146484375
218,-0.0146484375
219,-0.017578125
220,-0.017578125
221,-0.0146484375
222,-0.0146484375
223,-0.017578125
224,-0.017578125
225,-0.0146484375
226,-0.017578125
227,-0.0146484375
228,-0.0146484375
229,-0.0146484375
230,-0.0146484375
231,-0.0146484375
232,-0.0146484375
233,-0.0146484375
234,-0.0146484375
235,-0.017578125
236,-0.017578125
237,-0.020507812499999997
238,-0.020507812499999997
239,-0.0263671875
240,-0.029296875
241,-0.03222656249999999
242,-0.0380859375
243,-0.04101562499999999
244,-0.04687499999999999
245,-0.0498046875
246,-0.0498046875
247,-0.05566406249999999
248,-0.0615234375
249,-0.06738281249999999
250,-0.0703125
251,-0.0732421875
252,-0.076171875
253,-0.08203124999999999
254,-0.0849609375
255,-0.0849609375
256,-0.087890625
257,-0.0908203125
258,-0.09374999999999999
259,-0.09667968749999999
260,-0.09667968749999999
261,-0.099609375
262,-0.099609375
263,-0.099609375
264,-0.1025390625
265,-0.1025390625
266,-0.10546875
267,-0.10546875
268,-0.1083984375
269,-0.1083984375
270,-0.1083984375
271,-0.1083984375
272,-0.1083984375
273,-0.1083984375
274,-0.10546875
275,-0.1083984375
276,-0.10546875
277,-0.10546875
278,-0.10546875
279,-0.1025390625
280,-0.099609375
281,-0.099609375
282,-0.09667968749999999
283,-0.09667968749999999
284,-0.09667968749999999
285,-0.09374999999999999
286,-0.0908203125
287,-0.087890625
288,-0.087890625
289,-0.0849609375
290,-0.07910156249999999
291,-0.076171875
292,-0.0732421875
293,-0.0703125
294,-0.06738281249999999
295,-0.0615234375
296,-0.05859375
297,-0.05566406249999999
298,-0.0498046875
299,-0.04687499999999999
300,-0.04687499999999999
301,-0.0439453125
302,-0.0380859375
303,-0.03515625
304,-0.03222656249999999
305,-0.0263671875
306,-0.023437499999999997
307,-0.017578125
308,-0.0146484375
309,-0.011718749999999998
310,-0.005859374999999999
311,0.0
312,0.0029296874999999996
313,0.0087890625
314,0.011718749999999998
315,0.017578125
316,0.020507812499999997
317,0.020507812499999997
318,0.023437499999999997
319,0.023437499999999997
320,0.0263671875
321,0.023437499999999997
322,0.023437499999999997
323,0.023437499999999997
324,0.023437499999999997
325,0.0263671875
326,0.0263671875
327,0.0263671875
328,0.023437499999999997
329,0.020507812499999997
330,0.020507812499999997
331,0.020507812499999997
332,0.020507812499999997
333,0.020507812499999997
334,0.020507812499999997
335,0.020507812499999997
336,0.020507812499999997
337,0.020507812499999997
338,0.020507812499999997
339,0.020507812499999997
340,0.020507812499999997
341,0.017578125
342,0.017578125
343,0.017578125
344,0.017578125
345,0.017578125
346,0.017578125
347,0.017578125
348,0.0146484375
349,0.011718749999999998
350,0.011718749999999998
351,0.011718749999999998
352,0.011718749999999998
353,0.011718749999999998
354,0.011718749999999998
355,0.011718749999999998
356,0.011718749999999998
357,0.0146484375
358,0.011718749999999998
359,0.011718749999999998
360,0.011718749999999998
361,0.011718749999999998
362,0.011718749999999998
363,0.011718749999999998
364,0.0087890625
365,0.011718749999999998
366,0.0087890625
367,0.0087890625
368,0.0087890625
369,0.005859374999999999
370,0.0087890625
371,0.005859374999999999
372,0.005859374999999999
373,0.005859374999999999
374,0.005859374999999999
375,0.0087890625
376,0.005859374999999999
377,0.005859374999999999
378,0.005859374999999999
379,0.005859374999999999
380,0.0029296874999999996
381,0.0029296874999999996
382,0.0029296874999999996
383,0.0
384,0.0
385,0.0
386,0.0
387,0.0
388,0.0029296874999999996
389,0.0029296874999999996
390,0.0
391,0.0
392,0.0
393,0.0
394,0.0
395,-0.0029296874999999996
396,-0.0029296874999999996
397,0.0029296874999999996
398,0.0087890625
399,0.020507812499999997
400,0.03515625
401,0.04687499999999999
402,0.05859375
403,0.0732421875
404,0.0849609375
405,0.099609375
406,0.11132812499999999
407,0.12890624999999997
408,0.1376953125
409,0.1259765625
410,0.11132812499999999
411,0.07910156249999999
412,0.05566406249999999
413,0.0146484375
414,-0.020507812499999997
415,-0.06445312499999999
416,-0.099609375
417,-0.1494140625
418,-0.1904296875
419,-0.24023437499999997
420,-0.28125
421,-0.33105468749999994
422,-0.36914062499999994
423,-0.4189453125
424,-0.45996093750000006
425,-0.5068359375
426,-0.5449218749999999
427,-0.5917968749999999
428,-0.6298828125
429,-0.6767578125
430,-0.71484375
431,-0.7587890624999999
432,-0.791015625
433,-0.814453125
434,-0.8261718749999999
435,-0.8349609375
436,-0.8408203124999999
437,-0.814453125
438,-0.7880859374999999
439,-0.7412109375
440,-0.703125
441,-0.6474609374999999
442,-0.6005859375
443,-0.5419921875
444,-0.48632812499999994
445,-0.421875
446,-0.36914062499999994
447,-0.3046875
448,-0.2490234375
449,-0.18457031249999997
450,-0.1259765625
451,-0.0615234375
452,-0.011718749999999998
453,0.0498046875
454,0.1025390625
455,0.16699218749999997
456,0.21386718749999997
457,0.275390625
458,0.322265625
459,0.38378906249999994
460,0.4248046875
461,0.44238281249999994
462,0.4541015625
463,0.44824218749999994
464,0.4365234375
465,0.416015625
466,0.3984375
467,0.37207031249999994
468,0.3486328125
469,0.31640624999999994
470,0.287109375
471,0.251953125
472,0.22265624999999997
473,0.2021484375
474,0.18457031249999997
475,0.1728515625
476,0.1611328125
477,0.1494140625
478,0.140625
479,0.1376953125
480,0.1318359375
481,0.1259765625
482,0.12011718749999999
483,0.1171875
484,0.1142578125
485,0.1142578125
486,0.11132812499999999
487,0.1083984375
488,0.10546875
489,0.1025390625
490,0.1025390625
491,0.099609375
492,0.099609375
493,0.09667968749999999
494,0.09374999999999999
495,0.09374999999999999
496,0.0908203125
497,0.0908203125
498,0.087890625
499,0.0849609375
500,0.08203124999999999
501,0.08203124999999999
502,0.07910156249999999
503,0.07910156249999999
504,0.076171875
505,0.0732421875
506,0.0732421875
507,0.0703125
508,0.0703125
509,0.06738281249999999
510,0.06445312499999999
511,0.06445312499999999
512,0.06445312499999999
513,0.0615234375
514,0.05859375
515,0.05566406249999999
516,0.052734375
517,0.052734375
518,0.052734375
519,0.0498046875
520,0.04687499999999999
521,0.04687499999999999
522,0.04687499999999999
523,0.0439453125
524,0.0439453125
525,0.04101562499999999
526,0.04101562499999999
527,0.0380859375
528,0.03515625
529,0.03222656249999999
530,0.029296875
531,0.0263671875
532,0.0263671875
533,0.023437499999999997
534,0.023437499999999997
535,0.020507812499999997
536,0.020507812499999997
537,0.020507812499999997
538,0.017578125
539,0.0146484375
540,0.011718749999999998
541,0.0087890625
542,0.0087890625
543,0.005859374999999999
544,0.0029296874999999996
545,0.0
546,-0.0029296874999999996
547,-0.0029296874999999996
548,-0.005859374999999999
549,-0.0087890625
550,-0.0087890625
551,-0.011718749999999998
552,-0.011718749999999998
553,-0.011718749999999998
554,-0.011718749999999998
555,-0.0146484375
556,-0.0146484375
557,-0.017578125
558,-0.020507812499999997
559,-0.020507812499999997
560,-0.020507812499999997
561,-0.0263671875
562,-0.0263671875
563,-0.0263671875
564,-0.029296875
565,-0.029296875
566,-0.03222656249999999
567,-0.03515625
568,-0.03515625
569,-0.0380859375
570,-0.0380859375
571,-0.04101562499999999
572,-0.0439453125
573,-0.0439453125
574,-0.0439453125
575,-0.0439453125
576,-0.04687499999999999
577,-0.04687499999999999
578,-0.04687499999999999
579,-0.0498046875
580,-0.0498046875
581,-0.052734375
582,-0.0498046875
583,-0.052734375
584,-0.05566406249999999
585,-0.05566406249999999
586,-0.05859375
587,-0.05859375
588,-0.05859375
589,-0.05859375
590,-0.05859375
591,-0.05859375
592,-0.0615234375
593,-0.0615234375
594,-0.0615234375
595,-0.06738281249999999
596,-0.06738281249999999
597,-0.06738281249999999
598,-0.06445312499999999
599,-0.06738281249999999
600,-0.06738281249999999
601,-0.06738281249999999
602,-0.06738281249999999
603,-0.06738281249999999
604,-0.0703125
605,-0.0703125
606,-0.0703125
607,-0.0732421875
608,-0.0732421875
609,-0.0732421875
610,-0.0732421875
611,-0.0732421875
612,-0.076171875
613,-0.07910156249999999
614,-0.07910156249999999
615,-0.07910156249999999
616,-0.07910156249999999
617,-0.08203124999999999
618,-0.08203124999999999
619,-0.08203124999999999
620,-0.08203124999999999
621,-0.08203124999999999
622,-0.08203124999999999
623,-0.0849609375
624,-0.0849609375
625,-0.0849609375
626,-0.087890625
627,-0.0849609375
628,-0.087890625
629,-0.087890625
630,-0.0849609375
631,-0.0849609375
632,-0.0849609375
633,-0.0849609375
634,-0.0849609375
635,-0.08203124999999999
636,-0.08203124999999999
637,-0.0849609375
638,-0.0849609375
639,-0.087890625
640,-0.087890625
641,-0.09374999999999999
642,-0.09374999999999999
643,-0.099609375
644,-0.1025390625
645,-0.10546875
646,-0.10546875
647,-0.11132812499999999
648,-0.1142578125
649,-0.1171875
650,-0.12011718749999999
651,-0.123046875
652,-0.123046875
653,-0.1259765625
654,-0.1259765625
655,-0.1259765625
656,-0.12890624999999997
657,-0.12890624999999997
658,-0.12890624999999997
659,-0.1318359375
660,-0.12890624999999997
661,-0.1318359375
662,-0.1318359375
663,-0.1318359375
664,-0.1376953125
665,-0.1376953125
666,-0.1376953125
667,-0.140625
668,-0.140625
669,-0.1376953125
670,-0.13476562499999997
671,-0.1318359375
672,-0.12890624999999997
673,-0.123046875
674,-0.1171875
675,-0.11132812499999999
676,-0.1083984375
677,-0.1025390625
678,-0.09667968749999999
679,-0.0908203125
680,-0.0849609375
681,-0.07910156249999999
682,-0.0732421875
683,-0.06738281249999999
684,-0.06445312499999999
685,-0.05859375
686,-0.05566406249999999
687,-0.052734375
688,-0.0498046875
689,-0.04687499999999999
690,-0.0439453125
691,-0.0439453125
692,-0.0380859375
693,-0.03515625
694,-0.03222656249999999
695,-0.029296875
696,-0.023437499999999997
697,-0.023437499999999997
698,-0.020507812499999997
699,-0.017578125
700,-0.011718749999999998
701,-0.0087890625
702,-0.0029296874999999996
703,0.0029296874999999996
704,0.0087890625
705,0.017578125
706,0.0263671875
707,0.03515625
708,0.0439453125
709,0.052734375
710,0.06445312499999999
711,0.076171875
712,0.08203124999999999
713,0.09374999999999999
714,0.1025390625
715,0.11132812499999999
716,0.1171875
717,0.123046875
718,0.12890624999999997
719,0.13476562499999997
720,0.1376953125
721,0.140625
722,0.1435546875
723,0.1435546875
724,0.1494140625
725,0.15234375
726,0.15527343749999997
727,0.1611328125
728,0.1611328125
729,0.16406249999999997
730,0.16406249999999997
731,0.16699218749999997
732,0.169921875
733,0.169921875
734,0.16699218749999997
735,0.169921875
736,0.16699218749999997
737,0.16699218749999997
738,0.16699218749999997
739,0.16406249999999997
740,0.1611328125
741,0.15820312499999997
742,0.15527343749999997
743,0.15234375
744,0.15234375
745,0.15234375
746,0.1494140625
747,0.146484375
748,0.1435546875
749,0.140625
750,0.140625
751,0.140625
752,0.1376953125
753,0.13476562499999997
754,0.13476562499999997
755,0.1318359375
756,0.12890624999999997
757,0.1259765625
758,0.123046875
759,0.123046875
760,0.12011718749999999
761,0.12011718749999999
762,0.1171875
763,0.1171875
764,0.1142578125
765,0.1171875
766,0.1142578125
767,0.1142578125
768,0.1142578125
769,0.11132812499999999
770,0.1083984375
771,0.1083984375
772,0.10546875
773,0.10546875
774,0.1025390625
775,0.1025390625
776,0.1025390625
777,0.1025390625
778,0.099609375
779,0.099609375
780,0.099609375
781,0.09667968749999999
782,0.09374999999999999
783,0.0908203125
784,0.0908203125
785,0.087890625
786,0.087890625
787,0.087890625
788,0.0849609375
789,0.08203124999999999
790,0.08203124999999999
791,0.08203124999999999
792,0.08203124999999999
793,0.07910156249999999
794,0.076171875
795,0.076171875
796,0.0732421875
797,0.0732421875
798,0.0703125
799,0.06738281249999999
800,0.06738281249999999
801,0.06445312499999999
802,0.06445312499999999
803,0.06445312499999999
804,0.06445312499999999
805,0.0615234375
806,0.05859375
807,0.05859375
808,0.0615234375
809,0.05859375
810,0.05859375
811,0.05566406249999999
812,0.05566406249999999
813,0.05566406249999999
814,0.05566406249999999
815,0.05566406249999999
816,0.0498046875
817,0.04687499999999999
818,0.04687499999999999
819,0.04687499999999999
820,0.04687499999999999
821,0.0439453125
822,0.0439453125
823,0.0439453125
824,0.0439453125
825,0.0439453125
826,0.04101562499999999
827,0.04101562499999999
828,0.0380859375
829,0.0380859375
830,0.0380859375
831,0.03515625
832,0.03515625
833,0.03515625
834,0.03222656249999999
835,0.03222656249999999
836,0.03222656249999999
837,0.029296875
838,0.029296875
839,0.029296875
840,0.029296875
841,0.029296875
842,0.03222656249999999
843,0.029296875
844,0.0263671875
845,0.0263671875
846,0.0263671875
847,0.0263671875
848,0.0263671875
849,0.023437499999999997
850,0.023437499999999997
851,0.023437499999999997
852,0.020507812499999997
853,0.020507812499999997
854,0.020507812499999997
855,0.020507812499999997
856,0.020507812499999997
857,0.020507812499999997
858,0.020507812499999997
859,0.017578125
860,0.020507812499999997
861,0.020507812499999997
862,0.017578125
863,0.017578125
864,0.017578125
865,0.017578125
866,0.0146484375
867,0.0146484375
868,0.0146484375
869,0.0146484375
870,0.0146484375
871,0.0146484375
872,0.0146484375
873,0.0146484375
874,0.0146484375
875,0.0146484375
876,0.0146484375
877,0.011718749999999998
878,0.011718749999999998
879,0.011718749999999998
880,0.0087890625
881,0.0087890625
882,0.0087890625
883,0.005859374999999999
884,0.0029296874999999996
885,0.0029296874999999996
886,0.0029296874999999996
887,0.0029296874999999996
888,0.0029296874999999996
889,0.0029296874999999996
890,0.005859374999999999
891,0.0029296874999999996
892,0.0029296874999999996
893,0.0029296874999999996
894,0.0
895,0.0029296874999999996
896,0.0
897,0.0
898,0.0
899,0.0
900,0.0
901,-0.0029296874999999996
902,-0.0029296874999999996
903,-0.0029296874999999996
904,-0.0029296874999999996
905,-0.0029296874999999996
906,-0.0029296874999999996
907,-0.0029296874999999996
908,-0.0029296874999999996
909,-0.0029296874999999996
910,0.0
911,0.0
912,0.0
913,0.0
914,-0.0029296874999999996
915,-0.0029296874999999996
916,-0.0029296874999999996
917,-0.0029296874999999996
918,-0.0029296874999999996
919,-0.0029296874999999996
920,-0.0029296874999999996
921,-0.0029296874999999996
922,-0.0029296874999999996
923,-0.0029296874999999996
924,-0.0029296874999999996
925,-0.005859374999999999
926,-0.005859374999999999
927,-0.005859374999999999
928,-0.005859374999999999
929,-0.0087890625
930,-0.005859374999999999
931,-0.0087890625
932,-0.0087890625
933,-0.011718749999999998
934,-0.011718749999999998
935,-0.011718749999999998
936,-0.0146484375
937,-0.0146484375
938,-0.0146484375
939,-0.0146484375
940,-0.011718749999999998
941,-0.011718749999999998
942,-0.011718749999999998
943,-0.011718749999999998
944,-0.011718749999999998
945,-0.011718749999999998
946,-0.011718749999999998
947,-0.011718749999999998
948,-0.011718749999999998
949,-0.011718749999999998
950,-0.011718749999999998
951,-0.0146484375
952,-0.0146484375
953,-0.011718749999999998
954,-0.0146484375
955,-0.011718749999999998
956,-0.011718749999999998
957,-0.011718749999999998
958,-0.011718749999999998
959,-0.011718749999999998
960,-0.011718749999999998
961,-0.011718749999999998
962,-0.0087890625
963,-0.0087890625
964,-0.0087890625
965,-0.0087890625
966,-0.011718749999999998
967,-0.011718749999999998
968,-0.011718749999999998
969,-0.011718749999999998
970,-0.011718749999999998
971,-0.0146484375
972,-0.011718749999999998
973,-0.011718749999999998
974,-0.0146484375
975,-0.011718749999999998
976,-0.0146484375
977,-0.0146484375
978,-0.0146484375
979,-0.0146484375
980,-0.0146484375
981,-0.0146484375
982,-0.0146484375
983,-0.017578125
984,-0.020507812499999997
985,-0.023437499999999997
986,-0.0263671875
987,-0.03222656249999999
988,-0.0380859375
989,-0.0439453125
990,-0.04687499999999999
991,-0.052734375
992,-0.05566406249999999
993,-0.05859375
994,-0.06445312499999999
995,-0.06738281249999999
996,-0.0732421875
997,-0.076171875
998,-0.08203124999999999
999,-0.0849609375
1000,-0.0849609375
1001,-0.0908203125
1002,-0.09374999999999999
1003,-0.09374999999999999
1004,-0.09374999999999999
1005,-0.09374999999999999
1006,-0.09667968749999999
1007,-0.099609375
1008,-0.1025390625
1009,-0.10546875
1010,-0.10546875
1011,-0.1083984375
1012,-0.1083984375
1013,-0.1083984375
1014,-0.11132812499999999
1015,-0.11132812499999999
1016,-0.1142578125
1017,-0.1142578125
1018,-0.11132812499999999
1019,-0.1142578125
1020,-0.11132812499999999
1021,-0.11132812499999999
1022,-0.1083984375
1023,-0.10546875
1024,-0.10546875
1025,-0.10546875
1026,-0.10546875
1027,-0.10546875
1028,-0.10546875
1029,-0.10546875
1030,-0.10546875
1031,-0.1025390625
1032,-0.099609375
1033,-0.09667968749999999
1034,-0.09667968749999999
1035,-0.09374999999999999
1036,-0.0908203125
1037,-0.0849609375
1038,-0.08203124999999999
1039,-0.08203124999999999
1040,-0.076171875
1041,-0.0732421875
1042,-0.0703125
1043,-0.0703125
1044,-0.06738281249999999
1045,-0.0615234375
1046,-0.05859375
1047,-0.05566406249999999
1048,-0.052734375
1049,-0.04687499999999999
1050,-0.0439453125
1051,-0.0380859375
1052,-0.03222656249999999
1053,-0.0263671875
1054,-0.023437499999999997
1055,-0.017578125
1056,-0.011718749999999998
1057,-0.005859374999999999
1058,0.0
1059,0.0029296874999999996
1060,0.0087890625
1061,0.011718749999999998
1062,0.0146484375
1063,0.020507812499999997
1064,0.020507812499999997
1065,0.020507812499999997
1066,0.023437499999999997
1067,0.0263671875
1068,0.023437499999999997
1069,0.023437499999999997
1070,0.0263671875
1071,0.0263671875
1072,0.0263671875
1073,0.0263671875
1074,0.023437499999999997
1075,0.023437499999999997
1076,0.0263671875
1077,0.023437499999999997
1078,0.023437499999999997
1079,0.020507812499999997
1080,0.020507812499999997
1081,0.020507812499999997
1082,0.017578125
1083,0.017578125
1084,0.017578125
1085,0.020507812499999997
1086,0.020507812499999997
1087,0.020507812499999997
1088,0.017578125
1089,0.017578125
1090,0.017578125
1091,0.017578125
1092,0.017578125
1093,0.0146484375
1094,0.017578125
1095,0.017578125
1096,0.011718749999999998
1097,0.0146484375
1098,0.011718749999999998
1099,0.011718749999999998
1100,0.011718749999999998
1101,0.011718749999999998
1102,0.0146484375
1103,0.011718749999999998
1104,0.011718749999999998
1105,0.011718749999999998
1106,0.011718749999999998
1107,0.0087890625
1108,0.0087890625
1109,0.0087890625
1110,0.0087890625
1111,0.0087890625
1112,0.0087890625
1113,0.005859374999999999
1114,0.005859374999999999
1115,0.005859374999999999
1116,0.005859374999999999
1117,0.0029296874999999996
1118,0.0029296874999999996
1119,0.0029296874999999996
1120,0.0029296874999999996
1121,0.0029296874999999996
1122,0.0029296874999999996
1123,0.0029296874999999996
1124,0.0
1125,0.0029296874999999996
1126,0.0029296874999999996
1127,0.0
1128,0.0
1129,0.0
1130,0.0
1131,0.0
1132,0.0
1133,0.0
1134,0.0
1135,0.0
1136,0.0
1137,0.0
1138,0.0
1139,0.0
1140,0.0
1141,0.0
1142,0.0
1143,0.005859374999999999
1144,0.011718749999999998
1145,0.020507812499999997
1146,0.03222656249999999
1147,0.04687499999999999
1148,0.05859375
1149,0.0732421875
1150,0.087890625
1151,0.1025390625
1152,0.1142578125
1153,0.12890624999999997
1154,0.13476562499999997
1155,0.123046875
1156,0.11132812499999999
1157,0.07910156249999999
1158,0.052734375
1159,0.011718749999999998
1160,-0.023437499999999997
1161,-0.0703125
1162,-0.10546875
1163,-0.15527343749999997
1164,-0.19921875
1165,-0.24609375
1166,-0.2841796875
1167,-0.33105468749999994
1168,-0.37207031249999994
1169,-0.421875
1170,-0.462890625
1171,-0.5097656249999999
1172,-0.5449218749999999
1173,-0.5917968749999999
1174,-0.6298828125
1175,-0.6767578125
1176,-0.7119140625
1177,-0.755859375
1178,-0.7880859374999999
1179,-0.80859375
1180,-0.8232421875
1181,-0.83203125
1182,-0.8349609375
1183,-0.80859375
1184,-0.7822265624999999
1185,-0.7382812499999999
1186,-0.7001953125
1187,-0.64453125
1188,-0.5947265625
1189,-0.5361328124999999
1190,-0.48046874999999994
1191,-0.4189453125
1192,-0.3662109375
1193,-0.3017578125
1194,-0.2490234375
1195,-0.181640625
1196,-0.1318359375
1197,-0.0703125
1198,-0.017578125
1199,0.03515625
1200,0.09374999999999999
1201,0.1611328125
1202,0.2109375
1203,0.27246093749999994
1204,0.3193359375
1205,0.38378906249999994
1206,0.42773437499999994
1207,0.44531249999999994
1208,0.45703125
1209,0.44824218749999994
1210,0.44238281249999994
1211,0.4189453125
1212,0.4013671875
1213,0.37499999999999994
1214,0.3515625
1215,0.31640624999999994
1216,0.2900390625
1217,0.25488281249999994
1218,0.22558593749999997
1219,0.205078125
1220,0.18749999999999997
1221,0.17578125
1222,0.16406249999999997
1223,0.15820312499999997
1224,0.1494140625
1225,0.1435546875
1226,0.1376953125
1227,0.1318359375
1228,0.1259765625
1229,0.123046875
1230,0.12011718749999999
1231,0.1171875
1232,0.1142578125
1233,0.11132812499999999
1234,0.1083984375
1235,0.10546875
1236,0.1025390625
1237,0.09667968749999999
1238,0.09374999999999999
1239,0.09374999999999999
1240,0.09374999999999999
1241,0.0908203125
1242,0.0908203125
1243,0.0908203125
1244,0.087890625
1245,0.0849609375
1246,0.08203124999999999
1247,0.08203124999999999
1248,0.07910156249999999
1249,0.07910156249999999
1250,0.07910156249999999
1251,0.076171875
1252,0.076171875
1253,0.076171875
1254,0.0732421875
1255,0.0732421875
1256,0.0703125
1257,0.06738281249999999
1258,0.06445312499999999
1259,0.0615234375
1260,0.0615234375
1261,0.05859375
1262,0.05859375
1263,0.05566406249999999
1264,0.05566406249999999
1265,0.052734375
1266,0.0498046875
1267,0.04687499999999999
1268,0.04687499999999999
1269,0.0439453125
1270,0.0439453125
1271,0.0439453125
1272,0.04101562499999999
1273,0.03515625
1274,0.03222656249999999
1275,0.03222656249999999
1276,0.03222656249999999
1277,0.029296875
1278,0.0263671875
1279,0.023437499999999997
1280,0.020507812499999997
1281,0.020507812499999997
1282,0.020507812499999997
1283,0.017578125
1284,0.0146484375
1285,0.0146484375
1286,0.011718749999999998
1287,0.011718749999999998
1288,0.0087890625
1289,0.0087890625
1290,0.005859374999999999
1291,0.0029296874999999996
1292,0.0029296874999999996
1293,0.0
1294,0.0
1295,0.0
1296,-0.0029296874999999996
1297,-0.005859374999999999
1298,-0.0087890625
1299,-0.011718749999999998
1300,-0.011718749999999998
1301,-0.011718749999999998
1302,-0.011718749999999998
1303,-0.0146484375
1304,-0.0146484375
1305,-0.0146484375
1306,-0.017578125
1307,-0.017578125
1308,-0.017578125
1309,-0.020507812499999997
1310,-0.023437499999999997
1311,-0.023437499999999997
1312,-0.023437499999999997
1313,-0.023437499999999997
1314,-0.0263671875
1315,-0.0263671875
1316,-0.0263671875
1317,-0.029296875
1318,-0.029296875
1319,-0.03222656249999999
1320,-0.03515625
1321,-0.03515625
1322,-0.03515625
1323,-0.0380859375
1324,-0.0380859375
1325,-0.0380859375
1326,-0.04101562499999999
1327,-0.0439453125
1328,-0.0439453125
1329,-0.0439453125
1330,-0.04687499999999999
1331,-0.04687499999999999
1332,-0.0498046875
1333,-0.0498046875
1334,-0.052734375
1335,-0.052734375
1336,-0.05566406249999999
1337,-0.05566406249999999
1338,-0.05566406249999999
1339,-0.05859375
1340,-0.05859375
1341,-0.05859375
1342,-0.05859375
1343,-0.05859375
1344,-0.0615234375
1345,-0.05859375
1346,-0.0615234375
1347,-0.0615234375
1348,-0.0615234375
1349,-0.06445312499999999
1350,-0.0615234375
1351,-0.06445312499999999
1352,-0.06738281249999999
1353,-0.06738281249999999
1354,-0.0703125
1355,-0.0732421875
1356,-0.0732421875
1357,-0.0732421875
1358,-0.0732421875
1359,-0.076171875
1360,-0.076171875
1361,-0.07910156249999999
1362,-0.076171875
1363,-0.07910156249999999
1364,-0.08203124999999999
1365,-0.08203124999999999
1366,-0.08203124999999999
1367,-0.08203124999999999
1368,-0.08203124999999999
1369,-0.08203124999999999
1370,-0.08203124999999999
1371,-0.0849609375
1372,-0.08203124999999999
1373,-0.08203124999999999
1374,-0.08203124999999999
1375,-0.07910156249999999
1376,-0.08203124999999999
1377,-0.07910156249999999
1378,-0.08203124999999999
1379,-0.08203124999999999
1380,-0.0849609375
1381,-0.0849609375
1382,-0.0849609375
1383,-0.087890625
1384,-0.0908203125
1385,-0.09374999999999999
1386,-0.09374999999999999
1387,-0.09667968749999999
1388,-0.099609375
1389,-0.099609375
1390,-0.1025390625
1391,-0.10546875
1392,-0.10546875
1393,-0.11132812499999999
1394,-0.11132812499999999
1395,-0.1142578125
1396,-0.1171875
1397,-0.123046875
1398,-0.1259765625
1399,-0.1259765625
1400,-0.1259765625
1401,-0.12890624999999997
1402,-0.12890624999999997
1403,-0.12890624999999997
1404,-0.12890624999999997
1405,-0.12890624999999997
1406,-0.12890624999999997
1407,-0.12890624999999997
1408,-0.1318359375
1409,-0.1318359375
1410,-0.1318359375
1411,-0.13476562499999997
1412,-0.13476562499999997
1413,-0.1376953125
1414,-0.13476562499999997
1415,-0.1318359375
1416,-0.1318359375
1417,-0.1318359375
1418,-0.1259765625
1419,-0.123046875
1420,-0.1171875
1421,-0.1142578125
1422,-0.1083984375
1423,-0.10546875
1424,-0.1025390625
1425,-0.09374999999999999
1426,-0.0908203125
1427,-0.0849609375
1428,-0.07910156249999999
1429,-0.076171875
1430,-0.0703125
1431,-0.06445312499999999
1432,-0.0615234375
1433,-0.05859375
1434,-0.05566406249999999
1435,-0.0498046875
1436,-0.04687499999999999
1437,-0.04687499999999999
1438,-0.04101562499999999
1439,-0.0380859375
1440,-0.03515625
1441,-0.03222656249999999
1442,-0.029296875
1443,-0.0263671875
1444,-0.0263671875
1445,-0.023437499999999997
1446,-0.020507812499999997
1447,-0.011718749999999998
1448,-0.005859374999999999
1449,0.0029296874999999996
1450,0.0087890625
1451,0.020507812499999997
1452,0.0263671875
1453,0.0380859375
1454,0.0439453125
1455,0.05566406249999999
1456,0.06445312499999999
1457,0.0732421875
1458,0.08203124999999999
1459,0.0908203125
1460,0.099609375
1461,0.1083984375
1462,0.1171875
1463,0.1259765625
1464,0.12890624999999997
1465,0.13476562499999997
1466,0.1376953125
1467,0.140625
1468,0.146484375
1469,0.146484375
1470,0.1494140625
1471,0.15234375
1472,0.15527343749999997
1473,0.15820312499999997
1474,0.15820312499999997
1475,0.1611328125
1476,0.16406249999999997
1477,0.16406249999999997
1478,0.16406249999999997
1479,0.16406249999999997
1480,0.16406249999999997
1481,0.16406249999999997
1482,0.16406249999999997
1483,0.16406249999999997
1484,0.1611328125
1485,0.1611328125
1486,0.15820312499999997
1487,0.15820312499999997
1488,0.15527343749999997
1489,0.15234375
1490,0.1494140625
1491,0.1494140625
1492,0.1494140625
1493,0.146484375
1494,0.1435546875
1495,0.140625
1496,0.140625
1497,0.1376953125
1498,0.1376953125
1499,0.13476562499999997
1500,0.13476562499999997
1501,0.1318359375
1502,0.12890624999999997
1503,0.1259765625
1504,0.123046875
1505,0.123046875
1506,0.12011718749999999
1507,0.12011718749999999
1508,0.1171875
1509,0.1142578125
1510,0.1142578125
1511,0.1142578125
1512,0.1142578125
1513,0.11132812499999999
1514,0.11132812499999999
1515,0.1083984375
1516,0.10546875
1517,0.10546875
1518,0.10546875
1519,0.1025390625
1520,0.1025390625
1521,0.099609375
1522,0.099609375
1523,0.09667968749999999
1524,0.09667968749999999
1525,0.09374999999999999
1526,0.09374999999999999
1527,0.0908203125
1528,0.0908203125
1529,0.087890625
1530,0.0849609375
1531,0.08203124999999999
1532,0.08203124999999999
1533,0.08203124999999999
1534,0.07910156249999999
1535,0.07910156249999999
1536,0.07910156249999999
1537,0.07910156249999999
1538,0.076171875
1539,0.076171875
1540,0.076171875
1541,0.0732421875
1542,0.0732421875
1543,0.0703125
1544,0.0703125
1545,0.0703125
1546,0.0703125
1547,0.06738281249999999
1548,0.06445312499999999
1549,0.06445312499999999
1550,0.0615234375
1551,0.0615234375
1552,0.05859375
1553,0.05859375
1554,0.05859375
1555,0.05859375
1556,0.05566406249999999
1557,0.05566406249999999
1558,0.052734375
1559,0.0498046875
1560,0.0498046875
1561,0.0498046875
1562,0.0498046875
1563,0.0498046875
1564,0.04687499999999999
1565,0.04687499999999999
1566,0.0439453125
1567,0.0439453125
1568,0.0439453125
1569,0.0439453125
1570,0.04101562499999999
1571,0.04101562499999999
1572,0.04101562499999999
1573,0.0380859375
1574,0.03515625
1575,0.0380859375
1576,0.03515625
1577,0.03515625
1578,0.0380859375
1579,0.03515625
1580,0.03515625
1581,0.03515625
1582,0.03515625
1583,0.03515625
1584,0.03222656249999999
1585,0.03515625
1586,0.03222656249999999
1587,0.03222656249999999
1588,0.03515625
1589,0.029296875
1590,0.03222656249999999
1591,0.029296875
1592,0.029296875
1593,0.0263671875
1594,0.0263671875
1595,0.023437499999999997
1596,0.023437499999999997
1597,0.020507812499999997
1598,0.020507812499999997
1599,0.020507812499999997
1600,0.017578125
1601,0.0146484375
1602,0.017578125
1603,0.017578125
1604,0.0146484375
1605,0.0146484375
1606,0.0146484375
1607,0.0146484375
1608,0.0146484375
1609,0.011718749999999998
1610,0.0146484375
1611,0.0146484375
1612,0.0146484375
1613,0.011718749999999998
1614,0.011718749999999998
1615,0.0087890625
1616,0.0087890625
1617,0.0087890625
1618,0.0087890625
1619,0.005859374999999999
1620,0.0087890625
1621,0.005859374999999999
1622,0.0087890625
1623,0.0087890625
1624,0.0087890625
1625,0.0087890625
1626,0.0087890625
1627,0.0087890625
1628,0.0087890625
1629,0.005859374999999999
1630,0.005859374999999999
1631,0.0087890625
1632,0.0087890625
1633,0.005859374999999999
1634,0.005859374999999999
1635,0.0029296874999999996
1636,0.0029296874999999996
1637,0.0029296874999999996
1638,0.0
1639,0.0
1640,0.0
1641,0.0
1642,-0.0029296874999999996
1643,-0.0029296874999999996
1644,-0.0029296874999999996
1645,-0.0029296874999999996
1646,-0.0029296874999999996
1647,-0.0029296874999999996
1648,-0.0029296874999999996
1649,-0.0029296874999999996
1650,-0.0029296874999999996
1651,-0.0029296874999999996
1652,-0.0029296874999999996
1653,-0.0029296874999999996
1654,-0.0029296874999999996
1655,0.0
1656,0.0
1657,0.0
1658,-0.0029296874999999996
1659,-0.0029296874999999996
1660,-0.005859374999999999
1661,-0.005859374999999999
1662,-0.005859374999999999
1663,-0.005859374999999999
1664,-0.0087890625
1665,-0.005859374999999999
1666,-0.005859374999999999
1667,-0.005859374999999999
1668,-0.005859374999999999
1669,-0.0087890625
1670,-0.005859374999999999
1671,-0.005859374999999999
1672,-0.005859374999999999
1673,-0.005859374999999999
1674,-0.005859374999999999
1675,-0.005859374999999999
1676,-0.0087890625
1677,-0.0087890625
1678,-0.0087890625
1679,-0.0087890625
1680,-0.0087890625
1681,-0.0087890625
1682,-0.011718749999999998
1683,-0.011718749999999998
1684,-0.011718749999999998
1685,-0.011718749999999998
1686,-0.011718749999999998
1687,-0.011718749999999998
1688,-0.011718749999999998
1689,-0.0146484375
1690,-0.0146484375
1691,-0.0146484375
1692,-0.0146484375
1693,-0.0146484375
1694,-0.0146484375
1695,-0.0146484375
1696,-0.017578125
1697,-0.017578125
1698,-0.0146484375
1699,-0.0146484375
1700,-0.0146484375
1701,-0.017578125
1702,-0.017578125
1703,-0.017578125
1704,-0.020507812499999997
1705,-0.017578125
1706,-0.017578125
1707,-0.020507812499999997
1708,-0.017578125
1709,-0.0146484375
1710,-0.0146484375
1711,-0.0146484375
1712,-0.0146484375
1713,-0.011718749999999998
1714,-0.011718749999999998
1715,-0.011718749999999998
1716,-0.011718749999999998
1717,-0.011718749999999998
1718,-0.0146484375
1719,-0.0146484375
1720,-0.0146484375
1721,-0.0146484375
1722,-0.0146484375
1723,-0.017578125
1724,-0.017578125
1725,-0.017578125
1726,-0.017578125
1727,-0.017578125
1728,-0.020507812499999997
1729,-0.023437499999999997
1730,-0.023437499999999997
1731,-0.0263671875
1732,-0.03222656249999999
1733,-0.03515625
1734,-0.0380859375
1735,-0.0439453125
1736,-0.04687499999999999
1737,-0.0498046875
1738,-0.05566406249999999
1739,-0.05859375
1740,-0.0615234375
1741,-0.06738281249999999
1742,-0.0703125
1743,-0.0732421875
1744,-0.076171875
1745,-0.08203124999999999
1746,-0.0849609375
1747,-0.0849609375
1748,-0.087890625
1749,-0.0908203125
1750,-0.09374999999999999
1751,-0.09667968749999999
1752,-0.09667968749999999
1753,-0.09667968749999999
1754,-0.099609375
1755,-0.1025390625
1756,-0.10546875
1757,-0.10546875
1758,-0.10546875
1759,-0.1083984375
1760,-0.11132812499999999
1761,-0.11132812499999999
1762,-0.11132812499999999
1763,-0.11132812499999999
1764,-0.1142578125
1765,-0.11132812499999999
1766,-0.11132812499999999
1767,-0.11132812499999999
1768,-0.11132812499999999
1769,-0.1083984375
1770,-0.10546875
1771,-0.1083984375
1772,-0.10546875
1773,-0.10546875
1774,-0.10546875
1775,-0.1025390625
1776,-0.10546875
1777,-0.1025390625
1778,-0.099609375
1779,-0.09667968749999999
1780,-0.09667968749999999
1781,-0.0908203125
1782,-0.087890625
1783,-0.0849609375
1784,-0.08203124999999999
1785,-0.076171875
1786,-0.076171875
1787,-0.0732421875
1788,-0.0703125
1789,-0.06738281249999999
1790,-0.0615234375
1791,-0.05859375
1792,-0.05566406249999999
1793,-0.0498046875
1794,-0.0498046875
1795,-0.0439453125
1796,-0.04101562499999999
1797,-0.03515625
1798,-0.0263671875
1799,-0.023437499999999997
1800,-0.020507812499999997
1801,-0.0146484375
1802,-0.011718749999999998
1803,-0.005859374999999999
1804,-0.0029296874999999996
1805,0.0029296874999999996
1806,0.005859374999999999
1807,0.011718749999999998
1808,0.0146484375
1809,0.0146484375
1810,0.017578125
1811,0.017578125
1812,0.020507812499999997
1813,0.020507812499999997
1814,0.020507812499999997
1815,0.023437499999999997
1816,0.020507812499999997
1817,0.020507812499999997
1818,0.023437499999999997
1819,0.023437499999999997
1820,0.023437499999999997
1821,0.023437499999999997
1822,0.023437499999999997
1823,0.023437499999999997
1824,0.020507812499999997
1825,0.020507812499999997
1826,0.017578125
1827,0.017578125
1828,0.017578125
1829,0.0146484375
1830,0.0146484375
1831,0.0146484375
1832,0.017578125
1833,0.0146484375
1834,0.0146484375
1835,0.0146484375
1836,0.0146484375
1837,0.0146484375
1838,0.011718749999999998
1839,0.011718749999999998
1840,0.0087890625
1841,0.0087890625
1842,0.0087890625
1843,0.0087890625
1844,0.0087890625
1845,0.0087890625
1846,0.011718749999999998
1847,0.011718749999999998
1848,0.011718749999999998
1849,0.0087890625
1850,0.011718749999999998
1851,0.011718749999999998
1852,0.011718749999999998
1853,0.0087890625
1854,0.0087890625
1855,0.0087890625
1856,0.005859374999999999
1857,0.0087890625
1858,0.0087890625
1859,0.005859374999999999
1860,0.0087890625
1861,0.0087890625
1862,0.0087890625
1863,0.0087890625
1864,0.005859374999999999
1865,0.0087890625
1866,0.005859374999999999
1867,0.005859374999999999
1868,0.005859374999999999
1869,0.005859374999999999
1870,0.005859374999999999
1871,0.005859374999999999
1872,0.0029296874999999996
1873,0.005859374999999999
1874,0.0029296874999999996
1875,0.0029296874999999996
1876,0.0029296874999999996
1877,0.0029296874999999996
1878,0.0029296874999999996
1879,0.0029296874999999996
1880,0.0029296874999999996
1881,0.0029296874999999996
1882,0.0029296874999999996
1883,0.0029296874999999996
1884,0.0
1885,0.0
1886,0.0
1887,-0.0029296874999999996
1888,0.0
1889,0.005859374999999999
1890,0.011718749999999998
1891,0.023437499999999997
1892,0.03515625
1893,0.04687499999999999
1894,0.05859375
1895,0.076171875
1896,0.087890625
1897,0.099609375
1898,0.1142578125
1899,0.12890624999999997
1900,0.140625
1901,0.1259765625
1902,0.1142578125
1903,0.0849609375
1904,0.052734375
1905,0.0146484375
1906,-0.020507812499999997
1907,-0.06738281249999999
1908,-0.10546875
1909,-0.15527343749999997
1910,-0.19335937499999997
1911,-0.24316406249999997
1912,-0.28125
1913,-0.33105468749999994
1914,-0.37207031249999994
1915,-0.421875
1916,-0.45996093750000006
1917,-0.5068359375
1918,-0.5449218749999999
1919,-0.5917968749999999
1920,-0.6298828125
1921,-0.6767578125
1922,-0.7089843749999999
1923,-0.755859375
1924,-0.7880859374999999
1925,-0.8115234375
1926,-0.8261718749999999
1927,-0.8349609375
1928,-0.8349609375
1929,-0.80859375
1930,-0.7822265624999999
1931,-0.7382812499999999
1932,-0.7001953125
1933,-0.64453125
1934,-0.6005859375
1935,-0.5361328124999999
1936,-0.48632812499999994
1937,-0.421875
1938,-0.3662109375
1939,-0.298828125
1940,-0.24316406249999997
1941,-0.1787109375
1942,-0.123046875
1943,-0.05859375
1944,-0.0087890625
1945,0.05566406249999999
1946,0.10546875
1947,0.16406249999999997
1948,0.216796875
1949,0.2783203125
1950,0.32812499999999994
1951,0.38671874999999994
1952,0.42773437499999994
1953,0.44531249999999994
1954,0.45703125
1955,0.44824218749999994
1956,0.439453125
1957,0.4189453125
1958,0.3955078125
1959,0.37207031249999994
1960,0.345703125
1961,0.31347656249999994
1962,0.2841796875
1963,0.251953125
1964,0.22265624999999997
1965,0.2021484375
1966,0.18457031249999997
1967,0.169921875
1968,0.15820312499999997
1969,0.1494140625
1970,0.1435546875
1971,0.13476562499999997
1972,0.12890624999999997
1973,0.1259765625
1974,0.123046875
1975,0.12011718749999999
1976,0.1171875
1977,0.1142578125
1978,0.11132812499999999
1979,0.1083984375
1980,0.10546875
1981,0.1025390625
1982,0.1025390625
1983,0.099609375
1984,0.09667968749999999
1985,0.09667968749999999
1986,0.09374999999999999
1987,0.0908203125
1988,0.0908203125
1989,0.0849609375
1990,0.0849609375
1991,0.08203124999999999
1992,0.08203124999999999
1993,0.07910156249999999
1994,0.07910156249999999
1995,0.07910156249999999
1996,0.076171875
1997,0.076171875
1998,0.0732421875
1999,0.0732421875
2000,0.0703125
2001,0.0703125
2002,0.0703125
2003,0.06738281249999999
2004,0.06738281249999999
2005,0.06445312499999999
2006,0.0615234375
2007,0.0615234375
2008,0.05859375
2009,0.05566406249999999
2010,0.05566406249999999
2011,0.0498046875
2012,0.0498046875
2013,0.0498046875
2014,0.0498046875
2015,0.04687499999999999
2016,0.0439453125
2017,0.04101562499999999
2018,0.04101562499999999
2019,0.04101562499999999
2020,0.0380859375
2021,0.0380859375
2022,0.0380859375
2023,0.03515625
2024,0.03222656249999999
2025,0.03222656249999999
2026,0.0263671875
2027,0.0263671875
2028,0.023437499999999997
2029,0.020507812499999997
2030,0.020507812499999997
2031,0.017578125
2032,0.017578125
2033,0.0146484375
2034,0.011718749999999998
2035,0.0087890625
2036,0.005859374999999999
2037,0.005859374999999999
2038,0.0029296874999999996
2039,0.0
2040,0.0
2041,-0.0029296874999999996
2042,-0.0029296874999999996
2043,-0.005859374999999999
2044,-0.0087890625
2045,-0.011718749999999998
2046,-0.011718749999999998
2047,-0.0146484375
2048,-0.0146484375
2049,-0.0146484375
2050,-0.017578125
2051,-0.020507812499999997
2052,-0.020507812499999997
2053,-0.023437499999999997
2054,-0.0263671875
2055,-0.0263671875
2056,-0.029296875
2057,-0.029296875
2058,-0.029296875
2059,-0.03222656249999999
2060,-0.03222656249999999
2061,-0.03515625
2062,-0.03515625
2063,-0.03515625
2064,-0.0380859375
2065,-0.0380859375
2066,-0.04101562499999999
2067,-0.0439453125
2068,-0.04687499999999999
2069,-0.04687499999999999
2070,-0.04687499999999999
2071,-0.04687499999999999
2072,-0.04687499999999999
2073,-0.04687499999999999
2074,-0.0498046875
2075,-0.0498046875
2076,-0.052734375
2077,-0.052734375
2078,-0.05566406249999999
2079,-0.05566406249999999
2080,-0.05859375
2081,-0.05566406249999999
2082,-0.05566406249999999
2083,-0.05859375
2084,-0.05859375
2085,-0.05859375
2086,-0.0615234375
2087,-0.0615234375
2088,-0.05859375
2089,-0.05859375
2090,-0.05859375
2091,-0.0615234375
2092,-0.0615234375
2093,-0.0615234375
2094,-0.06445312499999999
2095,-0.06445312499999999
2096,-0.06445312499999999
2097,-0.06738281249999999
2098,-0.06738281249999999
2099,-0.0703125
2100,-0.0732421875
2101,-0.0732421875
2102,-0.0732421875
2103,-0.0703125
2104,-0.0732421875
2105,-0.0732421875
2106,-0.0732421875
2107,-0.076171875
2108,-0.076171875
2109,-0.07910156249999999
2110,-0.07910156249999999
2111,-0.08203124999999999
2112,-0.0849609375
2113,-0.0849609375
2114,-0.0849609375
2115,-0.0849609375
2116,-0.0849609375
2117,-0.0849609375
2118,-0.0849609375
2119,-0.0849609375
2120,-0.0849609375
2121,-0.0849609375
2122,-0.0849609375
2123,-0.0849609375
2124,-0.0849609375
2125,-0.0849609375
2126,-0.08203124999999999
2127,-0.08203124999999999
2128,-0.08203124999999999
2129,-0.0849609375
2130,-0.0849609375
2131,-0.0908203125
2132,-0.0908203125
2133,-0.09374999999999999
2134,-0.09374999999999999
2135,-0.09667968749999999
2136,-0.09667968749999999
2137,-0.1025390625
2138,-0.10546875
2139,-0.1083984375
2140,-0.11132812499999999
2141,-0.1171875
2142,-0.1171875
2143,-0.12011718749999999
2144,-0.1259765625
2145,-0.1259765625
2146,-0.12890624999999997
2147,-0.12890624999999997
2148,-0.1318359375
2149,-0.1318359375
2150,-0.13476562499999997
2151,-0.1376953125
2152,-0.1376953125
2153,-0.1376953125
2154,-0.140625
2155,-0.1376953125
2156,-0.1376953125
2157,-0.1376953125
2158,-0.1376953125
2159,-0.1376953125
2160,-0.1376953125
2161,-0.13476562499999997
2162,-0.1318359375
2163,-0.12890624999999997
2164,-0.123046875
2165,-0.12011718749999999
2166,-0.1171875
2167,-0.11132812499999999
2168,-0.1083984375
2169,-0.1025390625
2170,-0.09667968749999999
2171,-0.0908203125
2172,-0.087890625
2173,-0.08203124999999999
2174,-0.076171875
2175,-0.0703125
2176,-0.06445312499999999
2177,-0.05859375
2178,-0.05566406249999999
2179,-0.052734375
2180,-0.04687499999999999
2181,-0.0439453125
2182,-0.0439453125
2183,-0.0380859375
2184,-0.0380859375
2185,-0.029296875
2186,-0.0263671875
2187,-0.023437499999999997
2188,-0.020507812499999997
2189,-0.020507812499999997
2190,-0.017578125
2191,-0.011718749999999998
2192,-0.011718749999999998
2193,-0.005859374999999999
2194,0.0
2195,0.005859374999999999
2196,0.011718749999999998
2197,0.020507812499999997
2198,0.03222656249999999
2199,0.04101562499999999
2200,0.04687499999999999
2201,0.05566406249999999
2202,0.06445312499999999
2203,0.0732421875
2204,0.08203124999999999
2205,0.09374999999999999
2206,0.1025390625
2207,0.11132812499999999
2208,0.1171875
2209,0.1259765625
2210,0.12890624999999997
2211,0.13476562499999997
2212,0.1376953125
2213,0.140625
2214,0.140625
2215,0.1435546875
2216,0.1435546875
2217,0.146484375
2218,0.1494140625
2219,0.15234375
2220,0.15820312499999997
2221,0.15820312499999997
2222,0.1611328125
2223,0.16406249999999997
2224,0.16406249999999997
2225,0.16406249999999997
2226,0.16406249999999997
2227,0.16406249999999997
2228,0.16406249999999997
2229,0.1611328125
2230,0.1611328125
2231,0.1611328125
2232,0.15820312499999997
2233,0.15820312499999997
2234,0.15527343749999997
2235,0.15527343749999997
2236,0.15234375
2237,0.15234375
2238,0.1494140625
2239,0.1494140625
2240,0.146484375
2241,0.1435546875
2242,0.1435546875
2243,0.140625
2244,0.1376953125
2245,0.1376953125
2246,0.13476562499999997
2247,0.13476562499999997
2248,0.1318359375
2249,0.1259765625
2250,0.1259765625
2251,0.12011718749999999
2252,0.12011718749999999
2253,0.12011718749999999
2254,0.1171875
2255,0.1171875
2256,0.1142578125
2257,0.1142578125
2258,0.1142578125
2259,0.11132812499999999
2260,0.11132812499999999
2261,0.1083984375
2262,0.10546875
2263,0.10546875
2264,0.1025390625
2265,0.1025390625
2266,0.099609375
2267,0.099609375
2268,0.099609375
2269,0.09667968749999999
2270,0.09667968749999999
2271,0.09374999999999999
2272,0.09374999999999999
2273,0.09374999999999999
2274,0.0908203125
2275,0.0908203125
2276,0.0908203125
2277,0.087890625
2278,0.0849609375
2279,0.0849609375
2280,0.0849609375
2281,0.08203124999999999
2282,0.07910156249999999
2283,0.07910156249999999
2284,0.076171875
2285,0.07910156249999999
2286,0.076171875
2287,0.07910156249999999
2288,0.076171875
2289,0.076171875
2290,0.076171875
2291,0.0732421875
2292,0.0732421875
2293,0.0703125
2294,0.0703125
2295,0.0703125
2296,0.0703125
2297,0.06738281249999999
2298,0.06738281249999999
2299,0.06445312499999999
2300,0.06445312499999999
2301,0.05859375
2302,0.05859375
2303,0.05859375
2304,0.05566406249999999
2305,0.05566406249999999
2306,0.05566406249999999
2307,0.05566406249999999
2308,0.052734375
2309,0.0498046875
2310,0.04687499999999999
2311,0.04687499999999999
2312,0.0439453125
2313,0.0439453125
2314,0.0439453125
2315,0.04687499999999999
2316,0.0439453125
2317,0.0439453125
2318,0.04101562499999999
2319,0.04101562499999999
2320,0.0380859375
2321,0.0380859375
2322,0.0380859375
2323,0.0380859375
2324,0.0380859375
2325,0.04101562499999999
2326,0.0380859375
2327,0.0380859375
2328,0.03515625
2329,0.03515625
2330,0.03515625
2331,0.03222656249999999
2332,0.03222656249999999
2333,0.03222656249999999
2334,0.03222656249999999
2335,0.03222656249999999
2336,0.0263671875
2337,0.0263671875
2338,0.029296875
2339,0.029296875
2340,0.0263671875
2341,0.023437499999999997
2342,0.023437499999999997
2343,0.023437499999999997
2344,0.020507812499999997
2345,0.020507812499999997
2346,0.020507812499999997
2347,0.020507812499999997
2348,0.020507812499999997
2349,0.020507812499999997
2350,0.017578125
2351,0.017578125
2352,0.017578125
2353,0.0146484375
2354,0.017578125
2355,0.017578125
2356,0.0146484375
2357,0.0146484375
2358,0.011718749999999998
2359,0.011718749999999998
2360,0.011718749999999998
2361,0.011718749999999998
2362,0.0087890625
2363,0.0087890625
2364,0.0087890625
2365,0.005859374999999999
2366,0.0087890625
2367,0.0087890625
2368,0.0087890625
2369,0.005859374999999999
2370,0.005859374999999999
2371,0.005859374999999999
2372,0.005859374999999999
2373,0.0029296874999999996
2374,0.0029296874999999996
2375,0.0029296874999999996
2376,0.0029296874999999996
2377,0.0029296874999999996
2378,0.0029296874999999996
2379,0.0
2380,0.0
2381,0.0
2382,0.0
2383,0.0
2384,-0.0029296874999999996
2385,-0.0029296874999999996
2386,-0.0029296874999999996
2387,-0.0029296874999999996
2388,-0.0029296874999999996
2389,0.0
2390,0.0
2391,0.0
2392,0.0
2393,0.0
2394,0.0
2395,0.0
2396,0.0
2397,-0.0029296874999999996
2398,0.0
2399,0.0
2400,0.0
2401,-0.0029296874999999996
2402,0.0
2403,0.0
2404,0.0
2405,0.0
2406,0.0
2407,-0.0029296874999999996
2408,-0.0029296874999999996
2409,-0.0029296874999999996
2410,-0.0029296874999999996
2411,-0.0029296874999999996
2412,-0.0029296874999999996
2413,-0.0029296874999999996
2414,-0.0029296874999999996
2415,-0.0029296874999999996
2416,-0.0029296874999999996
2417,-0.005859374999999999
2418,-0.005859374999999999
2419,-0.005859374999999999
2420,-0.005859374999999999
2421,-0.0087890625
2422,-0.0087890625
2423,-0.0087890625
2424,-0.0087890625
2425,-0.0087890625
2426,-0.0087890625
2427,-0.0087890625
2428,-0.011718749999999998
2429,-0.0087890625
2430,-0.005859374999999999
2431,-0.0087890625
2432,-0.0087890625
2433,-0.0087890625
2434,-0.011718749999999998
2435,-0.011718749999999998
2436,-0.011718749999999998
2437,-0.0146484375
2438,-0.0146484375
2439,-0.0146484375
2440,-0.011718749999999998
2441,-0.011718749999999998
2442,-0.011718749999999998
2443,-0.0146484375
2444,-0.0146484375
2445,-0.0146484375
2446,-0.0146484375
2447,-0.0146484375
2448,-0.017578125
2449,-0.0146484375
2450,-0.0146484375
2451,-0.0146484375
2452,-0.017578125
2453,-0.017578125
2454,-0.020507812499999997
2455,-0.017578125
2456,-0.017578125
2457,-0.017578125
2458,-0.0146484375
2459,-0.0146484375
2460,-0.011718749999999998
2461,-0.011718749999999998
2462,-0.011718749999999998
2463,-0.0146484375
2464,-0.017578125
2465,-0.0146484375
2466,-0.0146484375
2467,-0.017578125
2468,-0.017578125
2469,-0.017578125
2470,-0.020507812499999997
2471,-0.020507812499999997
2472,-0.020507812499999997
2473,-0.020507812499999997
2474,-0.020507812499999997
2475,-0.020507812499999997
2476,-0.023437499999999997
2477,-0.0263671875
2478,-0.029296875
2479,-0.03515625
2480,-0.0380859375
2481,-0.04101562499999999
2482,-0.0439453125
2483,-0.0498046875
2484,-0.052734375
2485,-0.05566406249999999
2486,-0.05859375
2487,-0.06738281249999999
2488,-0.0732421875
2489,-0.076171875
2490,-0.08203124999999999
2491,-0.0849609375
2492,-0.0849609375
2493,-0.0908203125
2494,-0.09374999999999999
2495,-0.09374999999999999
2496,-0.09374999999999999
2497,-0.09667968749999999
2498,-0.099609375
2499,-0.1025390625
2500,-0.1025390625
2501,-0.10546875
2502,-0.10546875
2503,-0.1083984375
2504,-0.11132812499999999
2505,-0.1142578125
2506,-0.1142578125
2507,-0.1142578125
2508,-0.11132812499999999
2509,-0.1142578125
2510,-0.1142578125
2511,-0.11132812499999999
2512,-0.11132812499999999
2513,-0.11132812499999999
2514,-0.1083984375
2515,-0.1083984375
2516,-0.10546875
2517,-0.10546875
2518,-0.10546875
2519,-0.1025390625
2520,-0.099609375
2521,-0.099609375
2522,-0.099609375
2523,-0.09374999999999999
2524,-0.09374999999999999
2525,-0.09374999999999999
2526,-0.0908203125
2527,-0.0849609375
2528,-0.08203124999999999
2529,-0.08203124999999999
2530,-0.07910156249999999
2531,-0.07910156249999999
2532,-0.0732421875
2533,-0.0732421875
2534,-0.06738281249999999
2535,-0.0615234375
2536,-0.0615234375
2537,-0.05859375
2538,-0.05566406249999999
2539,-0.052734375
2540,-0.0498046875
2541,-0.04687499999999999
2542,-0.0439453125
2543,-0.0380859375
2544,-0.03515625
2545,-0.0263671875
2546,-0.023437499999999997
2547,-0.017578125
2548,-0.011718749999999998
2549,-0.005859374999999999
2550,0.0
2551,0.005859374999999999
2552,0.0087890625
2553,0.0146484375
2554,0.017578125
2555,0.023437499999999997
2556,0.0263671875
2557,0.0263671875
2558,0.0263671875
2559,0.0263671875
2560,0.0263671875
2561,0.0263671875
2562,0.0263671875
2563,0.023437499999999997
2564,0.0263671875
2565,0.0263671875
2566,0.0263671875
2567,0.023437499999999997
2568,0.023437499999999997
2569,0.023437499999999997
2570,0.023437499999999997
2571,0.020507812499999997
2572,0.020507812499999997
2573,0.020507812499999997
2574,0.020507812499999997
2575,0.020507812499999997
2576,0.017578125
2577,0.020507812499999997
2578,0.020507812499999997
2579,0.017578125
2580,0.0146484375
2581,0.0146484375
2582,0.017578125
2583,0.017578125
2584,0.017578125
2585,0.017578125
2586,0.017578125
2587,0.017578125
2588,0.0146484375
2589,0.0146484375
2590,0.0146484375
2591,0.0146484375
2592,0.0087890625
2593,0.0087890625
2594,0.0087890625
2595,0.011718749999999998
2596,0.011718749999999998
2597,0.011718749999999998
2598,0.011718749999999998
2599,0.0087890625
2600,0.0087890625
2601,0.0087890625
2602,0.0087890625
2603,0.0087890625
2604,0.005859374999999999
2605,0.005859374999999999
2606,0.005859374999999999
2607,0.005859374999999999
2608,0.005859374999999999
2609,0.0087890625
2610,0.0087890625
2611,0.005859374999999999
2612,0.0029296874999999996
2613,0.0029296874999999996
2614,0.0029296874999999996
2615,0.0029296874999999996
2616,0.0029296874999999996
2617,0.0029296874999999996
2618,0.0029296874999999996
2619,0.0029296874999999996
2620,0.0029296874999999996
2621,0.0029296874999999996
2622,0.0029296874999999996
2623,0.0029296874999999996
2624,0.0
2625,0.0
2626,0.0
2627,0.0
2628,0.0
2629,0.0
2630,0.0
2631,0.0
2632,0.0
2633,0.0
2634,0.0
2635,0.0087890625
2636,0.011718749999999998
2637,0.023437499999999997
2638,0.03515625
2639,0.04687499999999999
2640,0.0615234375
2641,0.07910156249999999
2642,0.0908203125
2643,0.1025390625
2644,0.1171875
2645,0.1318359375
2646,0.1435546875
2647,0.1318359375
2648,0.1142578125
2649,0.08203124999999999
2650,0.05566406249999999
2651,0.011718749999999998
2652,-0.020507812499999997
2653,-0.06445312499999999
2654,-0.1025390625
2655,-0.15234375
2656,-0.1904296875
2657,-0.24023437499999997
2658,-0.28125
2659,-0.33105468749999994
2660,-0.37207031249999994
2661,-0.421875
2662,-0.45703125
2663,-0.50390625
2664,-0.5419921875
2665,-0.5888671875
2666,-0.6240234375
2667,-0.6708984375
2668,-0.7089843749999999
2669,-0.755859375
2670,-0.7880859374999999
2671,-0.80859375
2672,-0.8261718749999999
2673,-0.8349609375
2674,-0.8349609375
2675,-0.8056640625
2676,-0.7851562499999999
2677,-0.7412109375
2678,-0.7001953125
2679,-0.64453125
2680,-0.5947265625
2681,-0.533203125
2682,-0.4833984375
2683,-0.421875
2684,-0.36914062499999994
2685,-0.3046875
2686,-0.251953125
2687,-0.18457031249999997
2688,-0.12890624999999997
2689,-0.0615234375
2690,-0.005859374999999999
2691,0.05566406249999999
2692,0.10546875
2693,0.16699218749999997
2694,0.216796875
2695,0.28125
2696,0.32812499999999994
2697,0.38671874999999994
2698,0.43066406249999994
2699,0.44531249999999994
2700,0.4541015625
2701,0.44531249999999994
2702,0.439453125
2703,0.4189453125
2704,0.3955078125
2705,0.36914062499999994
2706,0.345703125
2707,0.31347656249999994
2708,0.2841796875
2709,0.2490234375
2710,0.2197265625
2711,0.19921875
2712,0.181640625
2713,0.16699218749999997
2714,0.15527343749999997
2715,0.1494140625
2716,0.140625
2717,0.13476562499999997
2718,0.12890624999999997
2719,0.123046875
2720,0.12011718749999999
2721,0.1142578125
2722,0.11132812499999999
2723,0.11132812499999999
2724,0.1083984375
2725,0.1083984375
2726,0.10546875
2727,0.1025390625
2728,0.1025390625
2729,0.099609375
2730,0.09667968749999999
2731,0.09374999999999999
2732,0.0908203125
2733,0.087890625
2734,0.087890625
2735,0.087890625
2736,0.0849609375
2737,0.08203124999999999
2738,0.08203124999999999
2739,0.07910156249999999
2740,0.07910156249999999
2741,0.07910156249999999
2742,0.076171875
2743,0.076171875
2744,0.0732421875
2745,0.0732421875
2746,0.0703125
2747,0.0703125
2748,0.0703125
2749,0.06445312499999999
2750,0.06445312499999999
2751,0.05859375
2752,0.05566406249999999
2753,0.052734375
2754,0.0498046875
2755,0.0498046875
2756,0.04687499999999999
2757,0.0439453125
2758,0.0439453125
2759,0.04101562499999999
2760,0.04101562499999999
2761,0.04101562499999999
2762,0.04101562499999999
2763,0.03515625
2764,0.03515625
2765,0.03515625
2766,0.03222656249999999
2767,0.03222656249999999
2768,0.0263671875
2769,0.023437499999999997
2770,0.020507812499999997
2771,0.020507812499999997
2772,0.017578125
2773,0.017578125
2774,0.0146484375
2775,0.0146484375
2776,0.0146484375
2777,0.011718749999999998
2778,0.0087890625
2779,0.0087890625
2780,0.005859374999999999
2781,0.0029296874999999996
2782,0.0
2783,0.0
2784,-0.005859374999999999
2785,-0.005859374999999999
2786,-0.0087890625
2787,-0.0087890625
2788,-0.011718749999999998
2789,-0.011718749999999998
2790,-0.011718749999999998
2791,-0.0146484375
2792,-0.0146484375
2793,-0.017578125
2794,-0.020507812499999997
2795,-0.020507812499999997
2796,-0.023437499999999997
2797,-0.023437499999999997
2798,-0.0263671875
2799,-0.029296875
2800,-0.03222656249999999
2801,-0.03222656249999999
2802,-0.03222656249999999
2803,-0.03222656249999999
2804,-0.03515625
2805,-0.03515625
2806,-0.03515625
2807,-0.0380859375
2808,-0.0380859375
2809,-0.0380859375
2810,-0.0380859375
2811,-0.0380859375
2812,-0.0380859375
2813,-0.04101562499999999
2814,-0.04101562499999999
2815,-0.04101562499999999
2816,-0.0439453125
2817,-0.04687499999999999
2818,-0.0439453125
2819,-0.04687499999999999
2820,-0.04687499999999999
2821,-0.0498046875
2822,-0.052734375
2823,-0.052734375
2824,-0.05859375
2825,-0.05859375
2826,-0.05859375
2827,-0.05859375
2828,-0.05859375
2829,-0.0615234375
2830,-0.0615234375
2831,-0.0615234375
2832,-0.0615234375
2833,-0.0615234375
2834,-0.0615234375
2835,-0.0615234375
2836,-0.06445312499999999
2837,-0.06445312499999999
2838,-0.06738281249999999
2839,-0.06738281249999999
2840,-0.06738281249999999
2841,-0.06738281249999999
2842,-0.06738281249999999
2843,-0.06738281249999999
2844,-0.06738281249999999
2845,-0.0703125
2846,-0.0703125
2847,-0.0732421875
2848,-0.0732421875
2849,-0.0732421875
2850,-0.0732421875
2851,-0.076171875
2852,-0.076171875
2853,-0.076171875
2854,-0.07910156249999999
2855,-0.07910156249999999
2856,-0.08203124999999999
2857,-0.08203124999999999
2858,-0.0849609375
2859,-0.08203124999999999
2860,-0.0849609375
2861,-0.0849609375
2862,-0.0849609375
2863,-0.0849609375
2864,-0.0849609375
2865,-0.0849609375
2866,-0.0849609375
2867,-0.0849609375
2868,-0.0849609375
2869,-0.0849609375
2870,-0.0849609375
2871,-0.0849609375
2872,-0.0849609375
2873,-0.0849609375
2874,-0.0849609375
2875,-0.0849609375
2876,-0.087890625
2877,-0.0908203125
2878,-0.0908203125
2879,-0.09374999999999999
2880,-0.09667968749999999
2881,-0.099609375
2882,-0.099609375
2883,-0.1025390625
2884,-0.10546875
2885,-0.1083984375
2886,-0.11132812499999999
2887,-0.1171875
2888,-0.1171875
2889,-0.12011718749999999
2890,-0.123046875
2891,-0.1259765625
2892,-0.123046875
2893,-0.1259765625
2894,-0.12890624999999997
2895,-0.12890624999999997
2896,-0.12890624999999997
2897,-0.12890624999999997
2898,-0.1318359375
2899,-0.1318359375
2900,-0.1318359375
2901,-0.1376953125
2902,-0.1376953125
2903,-0.1376953125
2904,-0.1376953125
2905,-0.140625
2906,-0.140625
2907,-0.1376953125
2908,-0.1318359375
2909,-0.12890624999999997
2910,-0.1259765625
2911,-0.1171875
2912,-0.1142578125
2913,-0.1083984375
2914,-0.10546875
2915,-0.099609375
2916,-0.09374999999999999
2917,-0.0908203125
2918,-0.087890625
2919,-0.08203124999999999
2920,-0.076171875
2921,-0.0732421875
2922,-0.06738281249999999
2923,-0.0615234375
2924,-0.05859375
2925,-0.052734375
2926,-0.0498046875
2927,-0.0439453125
2928,-0.0439453125
2929,-0.0439453125
2930,-0.04101562499999999
2931,-0.0380859375
2932,-0.03515625
2933,-0.03222656249999999
2934,-0.029296875
2935,-0.023437499999999997
2936,-0.020507812499999997
2937,-0.017578125
2938,-0.0146484375
2939,-0.011718749999999998
2940,-0.0029296874999999996
2941,0.0029296874999999996
2942,0.0087890625
2943,0.020507812499999997
2944,0.0263671875
2945,0.0380859375
2946,0.0439453125
2947,0.05566406249999999
2948,0.06445312499999999
2949,0.0732421875
2950,0.08203124999999999
2951,0.0908203125
2952,0.099609375
2953,0.1083984375
2954,0.1142578125
2955,0.12011718749999999
2956,0.12890624999999997
2957,0.13476562499999997
2958,0.1376953125
2959,0.1435546875
2960,0.146484375
2961,0.1494140625
2962,0.15234375
2963,0.15527343749999997
2964,0.15527343749999997
2965,0.15820312499999997
2966,0.1611328125
2967,0.16406249999999997
2968,0.16406249999999997
2969,0.16699218749999997
2970,0.169921875
2971,0.169921875
2972,0.16699218749999997
2973,0.16406249999999997
2974,0.16406249999999997
2975,0.16406249999999997
2976,0.16406249999999997
2977,0.16406249999999997
2978,0.1611328125
2979,0.1611328125
2980,0.15820312499999997
2981,0.15527343749999997
2982,0.15527343749999997
2983,0.15234375
2984,0.1494140625
2985,0.1494140625
2986,0.146484375
2987,0.146484375
2988,0.1435546875
2989,0.140625
2990,0.140625
2991,0.1376953125
2992,0.13476562499999997
2993,0.13476562499999997
2994,0.1318359375
2995,0.12890624999999997
2996,0.1259765625
2997,0.1259765625
2998,0.1259765625
2999,0.123046875
3000,0.1259765625
3001,0.123046875
3002,0.12011718749999999
3003,0.12011718749999999
3004,0.1171875
3005,0.1171875
3006,0.1171875
3007,0.1142578125
3008,0.11132812499999999
3009,0.1083984375
3010,0.10546875
3011,0.1025390625
3012,0.1025390625
3013,0.1025390625
3014,0.099609375
3015,0.099609375
3016,0.09667968749999999
3017,0.09667968749999999
3018,0.09374999999999999
3019,0.0908203125
3020,0.0908203125
3021,0.0908203125
3022,0.087890625
3023,0.087890625
3024,0.0849609375
3025,0.08203124999999999
3026,0.08203124999999999
3027,0.07910156249999999
3028,0.07910156249999999
3029,0.07910156249999999
3030,0.076171875
3031,0.0732421875
3032,0.0732421875
3033,0.0703125
3034,0.0703125
3035,0.06738281249999999
3036,0.0703125
3037,0.0703125
3038,0.0703125
3039,0.06738281249999999
3040,0.06445312499999999
3041,0.06445312499999999
3042,0.06445312499999999
3043,0.06445312499999999
3044,0.0615234375
3045,0.0615234375
3046,0.0615234375
3047,0.0615234375
3048,0.05859375
3049,0.05859375
3050,0.05859375
3051,0.05566406249999999
3052,0.05566406249999999
3053,0.052734375
3054,0.0498046875
3055,0.052734375
3056,0.0498046875
3057,0.0498046875
3058,0.0498046875
3059,0.04687499999999999
3060,0.04687499999999999
3061,0.0439453125
3062,0.04687499999999999
3063,0.0439453125
3064,0.0439453125
3065,0.0439453125
3066,0.0439453125
3067,0.04101562499999999
3068,0.04101562499999999
3069,0.0380859375
3070,0.0380859375
3071,0.03515625
3072,0.03515625
3073,0.03515625
3074,0.03515625
3075,0.03515625
3076,0.03515625
3077,0.03515625
3078,0.03515625
3079,0.03222656249999999
3080,0.03222656249999999
3081,0.03222656249999999
3082,0.03222656249999999
3083,0.03222656249999999
3084,0.029296875
3085,0.029296875
3086,0.0263671875
3087,0.0263671875
3088,0.023437499999999997
3089,0.023437499999999997
3090,0.020507812499999997
3091,0.020507812499999997
3092,0.020507812499999997
3093,0.020507812499999997
3094,0.017578125
3095,0.017578125
3096,0.017578125
3097,0.017578125
3098,0.0146484375
3099,0.011718749999999998
3100,0.011718749999999998
3101,0.0146484375
3102,0.0146484375
3103,0.0146484375
3104,0.011718749999999998
3105,0.011718749999999998
3106,0.011718749999999998
3107,0.0146484375
3108,0.011718749999999998
3109,0.011718749999999998
3110,0.011718749999999998
3111,0.0146484375
3112,0.011718749999999998
3113,0.011718749999999998
3114,0.011718749999999998
3115,0.011718749999999998
3116,0.0087890625
3117,0.0087890625
3118,0.0087890625
3119,0.0087890625
3120,0.005859374999999999
3121,0.0029296874999999996
3122,0.0029296874999999996
3123,0.0029296874999999996
3124,0.0029296874999999996
3125,0.0
3126,0.0029296874999999996
3127,0.0029296874999999996
3128,0.0
3129,0.0
3130,0.0029296874999999996
3131,0.0
3132,0.0
3133,0.0
3134,0.0
3135,0.0
3136,0.0
3137,-0.0029296874999999996
3138,-0.0029296874999999996
3139,-0.0029296874999999996
3140,0.0
3141,-0.0029296874999999996
3142,-0.0029296874999999996
3143,-0.0029296874999999996
3144,0.0
3145,0.0
3146,-0.0029296874999999996
3147,-0.0029296874999999996
3148,-0.0029296874999999996
3149,-0.0029296874999999996
3150,-0.0029296874999999996
3151,-0.005859374999999999
3152,-0.005859374999999999
3153,-0.005859374999999999
3154,-0.005859374999999999
3155,-0.005859374999999999
3156,-0.0087890625
3157,-0.005859374999999999
3158,-0.005859374999999999
3159,-0.005859374999999999
3160,-0.005859374999999999
3161,-0.005859374999999999
3162,-0.005859374999999999
3163,-0.005859374999999999
3164,-0.0087890625
3165,-0.005859374999999999
3166,-0.0087890625
3167,-0.0087890625
3168,-0.011718749999999998
3169,-0.011718749999999998
3170,-0.011718749999999998
3171,-0.011718749999999998
3172,-0.011718749999999998
3173,-0.011718749999999998
3174,-0.011718749999999998
3175,-0.0087890625
3176,-0.011718749999999998
3177,-0.011718749999999998
3178,-0.011718749999999998
3179,-0.0146484375
3180,-0.011718749999999998
3181,-0.011718749999999998
3182,-0.011718749999999998
3183,-0.011718749999999998
3184,-0.011718749999999998
3185,-0.011718749999999998
3186,-0.011718749999999998
3187,-0.0146484375
3188,-0.0146484375
3189,-0.017578125
3190,-0.0146484375
3191,-0.0146484375
3192,-0.011718749999999998
3193,-0.011718749999999998
3194,-0.011718749999999998
3195,-0.0146484375
3196,-0.017578125
3197,-0.017578125
3198,-0.017578125
3199,-0.017578125
3200,-0.020507812499999997
3201,-0.017578125
3202,-0.0146484375
3203,-0.0146484375
3204,-0.0146484375
3205,-0.0146484375
3206,-0.017578125
3207,-0.017578125
3208,-0.017578125
3209,-0.017578125
3210,-0.0146484375
3211,-0.017578125
3212,-0.017578125
3213,-0.017578125
3214,-0.017578125
3215,-0.0146484375
3216,-0.017578125
3217,-0.020507812499999997
3218,-0.020507812499999997
3219,-0.020507812499999997
3220,-0.020507812499999997
3221,-0.023437499999999997
3222,-0.023437499999999997
3223,-0.029296875
3224,-0.029296875
3225,-0.03515625
3226,-0.0380859375
3227,-0.04101562499999999
3228,-0.04687499999999999
3229,-0.052734375
3230,-0.05566406249999999
3231,-0.0615234375
3232,-0.06445312499999999
3233,-0.0703125
3234,-0.0732421875
3235,-0.07910156249999999
3236,-0.08203124999999999
3237,-0.0849609375
3238,-0.087890625
3239,-0.0908203125
3240,-0.09374999999999999
3241,-0.09374999999999999
3242,-0.09667968749999999
3243,-0.099609375
3244,-0.099609375
3245,-0.1025390625
3246,-0.1025390625
3247,-0.10546875
3248,-0.1083984375
3249,-0.1083984375
3250,-0.1083984375
3251,-0.11132812499999999
3252,-0.11132812499999999
3253,-0.11132812499999999
3254,-0.11132812499999999
3255,-0.11132812499999999
3256,-0.11132812499999999
3257,-0.1083984375
3258,-0.1083984375
3259,-0.1083984375
3260,-0.10546875
3261,-0.10546875
3262,-0.10546875
3263,-0.1025390625
3264,-0.10546875
3265,-0.10546875
3266,-0.1025390625
3267,-0.099609375
3268,-0.099609375
3269,-0.099609375
3270,-0.09667968749999999
3271,-0.09374999999999999
3272,-0.0908203125
3273,-0.087890625
3274,-0.0849609375
3275,-0.0849609375
3276,-0.07910156249999999
3277,-0.076171875
3278,-0.0732421875
3279,-0.0732421875
3280,-0.0703125
3281,-0.06738281249999999
3282,-0.0615234375
3283,-0.05859375
3284,-0.05566406249999999
3285,-0.0498046875
3286,-0.0498046875
3287,-0.04687499999999999
3288,-0.04101562499999999
3289,-0.0380859375
3290,-0.03222656249999999
3291,-0.0263671875
3292,-0.023437499999999997
3293,-0.017578125
3294,-0.011718749999999998
3295,-0.005859374999999999
3296,-0.0029296874999999996
3297,0.0
3298,0.005859374999999999
3299,0.011718749999999998
3300,0.0146484375
3301,0.020507812499999997
3302,0.023437499999999997
3303,0.0263671875
3304,0.0263671875
3305,0.0263671875
3306,0.0263671875
3307,0.023437499999999997
3308,0.023437499999999997
3309,0.023437499999999997
3310,0.023437499999999997
3311,0.023437499999999997
3312,0.020507812499999997
3313,0.020507812499999997
3314,0.020507812499999997
3315,0.020507812499999997
3316,0.017578125
3317,0.017578125
3318,0.017578125
3319,0.017578125
3320,0.017578125
3321,0.017578125
3322,0.0146484375
3323,0.0146484375
3324,0.0146484375
3325,0.0146484375
3326,0.0146484375
3327,0.011718749999999998
3328,0.011718749999999998
3329,0.011718749999999998
3330,0.011718749999999998
3331,0.011718749999999998
3332,0.011718749999999998
3333,0.0146484375
3334,0.0146484375
3335,0.017578125
3336,0.0146484375
3337,0.0146484375
3338,0.0146484375
3339,0.011718749999999998
3340,0.0146484375
3341,0.0146484375
3342,0.0146484375
3343,0.011718749999999998
3344,0.0087890625
3345,0.011718749999999998
3346,0.0087890625
3347,0.011718749999999998
3348,0.011718749999999998
3349,0.011718749999999998
3350,0.011718749999999998
3351,0.0087890625
3352,0.0087890625
3353,0.0087890625
3354,0.005859374999999999
3355,0.005859374999999999
3356,0.005859374999999999
3357,0.005859374999999999
3358,0.0029296874999999996
3359,0.005859374999999999
3360,0.005859374999999999
3361,0.005859374999999999
3362,0.005859374999999999
3363,0.0029296874999999996
3364,0.0029296874999999996
3365,0.0029296874999999996
3366,0.0029296874999999996
3367,0.0029296874999999996
3368,0.0029296874999999996
3369,0.0
3370,0.0029296874999999996
3371,0.0029296874999999996
3372,0.0029296874999999996
3373,0.0029296874999999996
3374,0.0029296874999999996
3375,0.0029296874999999996
3376,0.0
3377,0.0029296874999999996
3378,0.0029296874999999996
3379,0.0029296874999999996
3380,0.0029296874999999996
3381,0.011718749999999998
3382,0.017578125
3383,0.029296875
3384,0.0380859375
3385,0.052734375
3386,0.0615234375
3387,0.076171875
3388,0.087890625
3389,0.1025390625
3390,0.1171875
3391,0.1318359375
3392,0.1435546875
3393,0.12890624999999997
3394,0.1142578125
3395,0.08203124999999999
3396,0.05566406249999999
3397,0.0146484375
3398,-0.017578125
3399,-0.06445312499999999
3400,-0.1025390625
3401,-0.15234375
3402,-0.18749999999999997
3403,-0.24023437499999997
3404,-0.28125
3405,-0.32812499999999994
3406,-0.3662109375
3407,-0.416015625
3408,-0.45703125
3409,-0.5068359375
3410,-0.5449218749999999
3411,-0.5917968749999999
3412,-0.6269531249999999
3413,-0.673828125
3414,-0.7089843749999999
3415,-0.755859375
3416,-0.7880859374999999
3417,-0.8115234375
3418,-0.8261718749999999
3419,-0.8349609375
3420,-0.83203125
3421,-0.8056640625
3422,-0.7851562499999999
3423,-0.7382812499999999
3424,-0.697265625
3425,-0.6416015624999999
3426,-0.59765625
3427,-0.5361328124999999
3428,-0.48046874999999994
3429,-0.4189453125
3430,-0.36328125
3431,-0.29589843749999994
3432,-0.24609375
3433,-0.181640625
3434,-0.1259765625
3435,-0.06445312499999999
3436,-0.011718749999999998
3437,0.04687499999999999
3438,0.099609375
3439,0.16406249999999997
3440,0.21386718749999997
3441,0.275390625
3442,0.322265625
3443,0.380859375
3444,0.421875
3445,0.44238281249999994
3446,0.45703125
3447,0.44824218749999994
3448,0.439453125
3449,0.4189453125
3450,0.4013671875
3451,0.37207031249999994
3452,0.3486328125
3453,0.31640624999999994
3454,0.2841796875
3455,0.251953125
3456,0.22265624999999997
3457,0.19921875
3458,0.18457031249999997
3459,0.1728515625
3460,0.1611328125
3461,0.15234375
3462,0.146484375
3463,0.140625
3464,0.1318359375
3465,0.12890624999999997
3466,0.123046875
3467,0.1171875
3468,0.1171875
3469,0.1142578125
3470,0.11132812499999999
3471,0.1083984375
3472,0.1083984375
3473,0.10546875
3474,0.1025390625
3475,0.099609375
3476,0.09667968749999999
3477,0.09667968749999999
3478,0.0908203125
3479,0.087890625
3480,0.087890625
3481,0.0849609375
3482,0.0849609375
3483,0.08203124999999999
3484,0.08203124999999999
3485,0.08203124999999999
3486,0.07910156249999999
3487,0.07910156249999999
3488,0.076171875
3489,0.0732421875
3490,0.0703125
3491,0.0703125
3492,0.0703125
3493,0.06738281249999999
3494,0.06738281249999999
3495,0.06445312499999999
3496,0.05859375
3497,0.05859375
3498,0.05859375
3499,0.05566406249999999
3500,0.0498046875
3501,0.04687499999999999
3502,0.04687499999999999
3503,0.04687499999999999
3504,0.04687499999999999
3505,0.0439453125
3506,0.0439453125
3507,0.04101562499999999
3508,0.04101562499999999
3509,0.0380859375
3510,0.0380859375
3511,0.03515625
3512,0.03222656249999999
3513,0.029296875
3514,0.029296875
3515,0.029296875
3516,0.0263671875
3517,0.023437499999999997
3518,0.023437499999999997
3519,0.023437499999999997
3520,0.023437499999999997
3521,0.020507812499999997
3522,0.020507812499999997
3523,0.017578125
3524,0.011718749999999998
3525,0.011718749999999998
3526,0.0087890625
3527,0.0087890625
3528,0.005859374999999999
3529,0.0029296874999999996
3530,0.0029296874999999996
3531,0.0
3532,0.0
3533,-0.0029296874999999996
3534,-0.005859374999999999
3535,-0.005859374999999999
3536,-0.011718749999999998
3537,-0.011718749999999998
3538,-0.0146484375
3539,-0.017578125
3540,-0.017578125
3541,-0.020507812499999997
3542,-0.020507812499999997
3543,-0.020507812499999997
3544,-0.023437499999999997
3545,-0.023437499999999997
3546,-0.023437499999999997
3547,-0.0263671875
3548,-0.023437499999999997
3549,-0.0263671875
3550,-0.029296875
3551,-0.029296875
3552,-0.029296875
3553,-0.03222656249999999
3554,-0.03222656249999999
3555,-0.03515625
3556,-0.03515625
3557,-0.0380859375
3558,-0.0380859375
3559,-0.0380859375
3560,-0.04101562499999999
3561,-0.04101562499999999
3562,-0.04101562499999999
3563,-0.0439453125
3564,-0.0439453125
3565,-0.04687499999999999
3566,-0.04687499999999999
3567,-0.0498046875
3568,-0.052734375
3569,-0.05566406249999999
3570,-0.05566406249999999
3571,-0.05859375
3572,-0.05859375
3573,-0.05859375
3574,-0.05859375
3575,-0.05566406249999999
3576,-0.05859375
3577,-0.05859375
3578,-0.0615234375
3579,-0.06445312499999999
3580,-0.06445312499999999
3581,-0.06445312499999999
3582,-0.0615234375
3583,-0.0615234375
3584,-0.0615234375
3585,-0.06445312499999999
3586,-0.0615234375
3587,-0.0615234375
3588,-0.0615234375
3589,-0.06445312499999999
3590,-0.06445312499999999
3591,-0.06445312499999999
3592,-0.06738281249999999
3593,-0.06738281249999999
3594,-0.06738281249999999
3595,-0.0703125
3596,-0.0703125
3597,-0.0703125
3598,-0.0732421875
3599,-0.0732421875
3600,-0.076171875
3601,-0.07910156249999999
3602,-0.07910156249999999
3603,-0.07910156249999999
3604,-0.08203124999999999
3605,-0.08203124999999999
3606,-0.08203124999999999
3607,-0.0849609375
3608,-0.0849609375
3609,-0.0849609375
3610,-0.0849609375
3611,-0.08203124999999999
3612,-0.08203124999999999
3613,-0.08203124999999999
3614,-0.08203124999999999
3615,-0.0849609375
3616,-0.0849609375
3617,-0.0849609375
3618,-0.0849609375
3619,-0.0849609375
3620,-0.0849609375
3621,-0.0908203125
3622,-0.0908203125
3623,-0.09374999999999999
3624,-0.09374999999999999
3625,-0.09374999999999999
3626,-0.09667968749999999
3627,-0.099609375
3628,-0.099609375
3629,-0.10546875
3630,-0.10546875
3631,-0.11132812499999999
3632,-0.1142578125
3633,-0.1171875
3634,-0.12011718749999999
3635,-0.123046875
3636,-0.123046875
3637,-0.1259765625
3638,-0.1259765625
3639,-0.12890624999999997
3640,-0.12890624999999997
3641,-0.12890624999999997
3642,-0.12890624999999997
3643,-0.1318359375
3644,-0.1318359375
3645,-0.1318359375
3646,-0.13476562499999997
3647,-0.13476562499999997
3648,-0.13476562499999997
3649,-0.1376953125
3650,-0.1376953125
3651,-0.13476562499999997
3652,-0.13476562499999997
3653,-0.1318359375
3654,-0.1318359375
3655,-0.1259765625
3656,-0.123046875
3657,-0.12011718749999999
3658,-0.1142578125
3659,-0.11132812499999999
3660,-0.10546875
3661,-0.099609375
3662,-0.09374999999999999
3663,-0.0908203125
3664,-0.0849609375
3665,-0.08203124999999999
3666,-0.076171875
3667,-0.0732421875
3668,-0.06738281249999999
3669,-0.0615234375
3670,-0.05859375
3671,-0.052734375
3672,-0.04687499999999999
3673,-0.0439453125
3674,-0.04101562499999999
3675,-0.0380859375
3676,-0.03515625
3677,-0.03222656249999999
3678,-0.0263671875
3679,-0.023437499999999997
3680,-0.023437499999999997
3681,-0.020507812499999997
3682,-0.0146484375
3683,-0.011718749999999998
3684,-0.0087890625
3685,-0.0029296874999999996
3686,0.0
3687,0.0087890625
3688,0.017578125
3689,0.0263671875
3690,0.03515625
3691,0.04101562499999999
3692,0.0498046875
3693,0.05566406249999999
3694,0.06445312499999999
3695,0.076171875
3696,0.08203124999999999
3697,0.09374999999999999
3698,0.1025390625
3699,0.11132812499999999
3700,0.12011718749999999
3701,0.1259765625
3702,0.1318359375
3703,0.1376953125
3704,0.1376953125
3705,0.140625
3706,0.1435546875
3707,0.1494140625
3708,0.15234375
3709,0.15234375
3710,0.15820312499999997
3711,0.1611328125
3712,0.1611328125
3713,0.16406249999999997
3714,0.16406249999999997
3715,0.16699218749999997
3716,0.16699218749999997
3717,0.16699218749999997
3718,0.16699218749999997
3719,0.16406249999999997
3720,0.16406249999999997
3721,0.16406249999999997
3722,0.16406249999999997
3723,0.16406249999999997
3724,0.1611328125
3725,0.15820312499999997
3726,0.15527343749999997
3727,0.15234375
3728,0.1494140625
3729,0.1494140625
3730,0.1435546875
3731,0.140625
3732,0.1376953125
3733,0.1376953125
3734,0.1376953125
3735,0.1376953125
3736,0.13476562499999997
3737,0.13476562499999997
3738,0.13476562499999997
3739,0.1318359375
3740,0.12890624999999997
3741,0.1259765625
3742,0.123046875
3743,0.12011718749999999
3744,0.12011718749999999
3745,0.1171875
3746,0.1142578125
3747,0.1142578125
3748,0.11132812499999999
3749,0.11132812499999999
3750,0.1083984375
3751,0.1083984375
3752,0.10546875
3753,0.10546875
3754,0.1025390625
3755,0.1025390625
3756,0.099609375
3757,0.09667968749999999
3758,0.09667968749999999
3759,0.09667968749999999
3760,0.09374999999999999
3761,0.09374999999999999
3762,0.0908203125
3763,0.0908203125
3764,0.0908203125
3765,0.0908203125
3766,0.0908203125
3767,0.0908203125
3768,0.087890625
3769,0.0849609375
3770,0.087890625
3771,0.087890625
3772,0.087890625
3773,0.08203124999999999
3774,0.08203124999999999
3775,0.08203124999999999
3776,0.07910156249999999
3777,0.07910156249999999
3778,0.076171875
3779,0.076171875
3780,0.0732421875
3781,0.0732421875
3782,0.0703125
3783,0.0703125
3784,0.0703125
3785,0.06738281249999999
3786,0.06738281249999999
3787,0.06445312499999999
3788,0.06445312499999999
3789,0.06445312499999999
3790,0.0615234375
3791,0.05859375
3792,0.05859375
3793,0.05859375
3794,0.05566406249999999
3795,0.05566406249999999
3796,0.052734375
3797,0.0498046875
3798,0.0498046875
3799,0.0498046875
3800,0.0498046875
3801,0.0498046875
3802,0.0498046875
3803,0.04687499999999999
3804,0.04687499999999999
3805,0.0439453125
3806,0.0439453125
3807,0.0439453125
3808,0.0439453125
3809,0.0439453125
3810,0.04101562499999999
3811,0.04101562499999999
3812,0.04101562499999999
3813,0.04101562499999999
3814,0.0380859375
3815,0.04101562499999999
3816,0.0380859375
3817,0.03515625
3818,0.03515625
3819,0.03222656249999999
3820,0.03222656249999999
3821,0.03222656249999999
3822,0.0263671875
3823,0.029296875
3824,0.0263671875
3825,0.029296875
3826,0.0263671875
3827,0.0263671875
3828,0.0263671875
3829,0.023437499999999997
3830,0.023437499999999997
3831,0.023437499999999997
3832,0.023437499999999997
3833,0.023437499999999997
3834,0.023437499999999997
3835,0.020507812499999997
3836,0.020507812499999997
3837,0.020507812499999997
3838,0.020507812499999997
3839,0.020507812499999997
3840,0.020507812499999997
3841,0.020507812499999997
3842,0.020507812499999997
3843,0.017578125
3844,0.017578125
3845,0.017578125
3846,0.017578125
3847,0.017578125
3848,0.0146484375
3849,0.0146484375
3850,0.0146484375
3851,0.0146484375
3852,0.0146484375
3853,0.011718749999999998
3854,0.011718749999999998
3855,0.0087890625
3856,0.0087890625
3857,0.0087890625
3858,0.005859374999999999
3859,0.0087890625
3860,0.0087890625
3861,0.0087890625
3862,0.0087890625
3863,0.005859374999999999
3864,0.005859374999999999
3865,0.005859374999999999
3866,0.005859374999999999
3867,0.0029296874999999996
3868,0.0029296874999999996
3869,0.0
3870,0.0029296874999999996
3871,0.0029296874999999996
3872,0.0029296874999999996
3873,0.0029296874999999996
3874,0.0
3875,0.0
3876,0.0
3877,0.0
3878,0.0
3879,0.0
3880,0.0
3881,-0.0029296874999999996
3882,-0.0029296874999999996
3883,0.0
3884,0.0
3885,-0.0029296874999999996
3886,0.0
3887,0.0
3888,0.0
3889,-0.0029296874999999996
3890,-0.0029296874999999996
3891,-0.0029296874999999996
3892,-0.005859374999999999
3893,-0.005859374999999999
3894,-0.005859374999999999
3895,-0.005859374999999999
3896,-0.005859374999999999
3897,-0.005859374999999999
3898,-0.005859374999999999
3899,-0.005859374999999999
3900,-0.005859374999999999
3901,-0.005859374999999999
3902,-0.005859374999999999
3903,-0.005859374999999999
3904,-0.0087890625
3905,-0.011718749999999998
3906,-0.0087890625
3907,-0.0087890625
3908,-0.0087890625
3909,-0.005859374999999999
3910,-0.005859374999999999
3911,-0.005859374999999999
3912,-0.0087890625
3913,-0.011718749999999998
3914,-0.0146484375
3915,-0.011718749999999998
3916,-0.011718749999999998
3917,-0.0146484375
3918,-0.0146484375
3919,-0.011718749999999998
3920,-0.0146484375
3921,-0.0146484375
3922,-0.0146484375
3923,-0.0146484375
3924,-0.0146484375
3925,-0.017578125
3926,-0.017578125
3927,-0.0146484375
3928,-0.017578125
3929,-0.0146484375
3930,-0.0146484375
3931,-0.0146484375
3932,-0.0146484375
3933,-0.0146484375
3934,-0.017578125
3935,-0.0146484375
3936,-0.017578125
3937,-0.0146484375
3938,-0.0146484375
3939,-0.0146484375
3940,-0.017578125
3941,-0.0146484375
3942,-0.017578125
3943,-0.017578125
3944,-0.017578125
3945,-0.017578125
3946,-0.017578125
3947,-0.020507812499999997
3948,-0.020507812499999997
3949,-0.020507812499999997
3950,-0.020507812499999997
3951,-0.020507812499999997
3952,-0.020507812499999997
3953,-0.023437499999999997
3954,-0.023437499999999997
3955,-0.023437499999999997
3956,-0.023437499999999997
3957,-0.023437499999999997
3958,-0.023437499999999997
3959,-0.023437499999999997
3960,-0.023437499999999997
3961,-0.023437499999999997
3962,-0.023437499999999997
3963,-0.023437499999999997
3964,-0.023437499999999997
3965,-0.023437499999999997
3966,-0.023437499999999997
3967,-0.023437499999999997
3968,-0.0263671875
3969,-0.03222656249999999
3970,-0.03515625
3971,-0.0380859375
3972,-0.0380859375
3973,-0.0439453125
3974,-0.04687499999999999
3975,-0.052734375
3976,-0.05859375
3977,-0.0615234375
3978,-0.06738281249999999
3979,-0.0732421875
3980,-0.0732421875
3981,-0.07910156249999999
3982,-0.07910156249999999
3983,-0.0849609375
3984,-0.0849609375
3985,-0.087890625
3986,-0.0908203125
3987,-0.09374999999999999
3988,-0.09667968749999999
3989,-0.09667968749999999
3990,-0.099609375
3991,-0.099609375
3992,-0.099609375
3993,-0.1025390625
3994,-0.10546875
3995,-0.1083984375
3996,-0.1083984375
3997,-0.11132812499999999
3998,-0.1142578125
3999,-0.1142578125
4000,-0.1142578125
4001,-0.1142578125
4002,-0.1142578125
4003,-0.1142578125
4004,-0.11132812499999999
4005,-0.11132812499999999
4006,-0.1083984375
4007,-0.10546875
4008,-0.10546875
4009,-0.10546875
4010,-0.1025390625
4011,-0.10546875
4012,-0.1025390625
4013,-0.099609375
4014,-0.1025390625
4015,-0.099609375
4016,-0.099609375
4017,-0.09667968749999999
4018,-0.09374999999999999
4019,-0.09374999999999999
4020,-0.087890625
4021,-0.0849609375
4022,-0.08203124999999999
4023,-0.07910156249999999
4024,-0.076171875
4025,-0.0732421875
4026,-0.0703125
4027,-0.06738281249999999
4028,-0.06445312499999999
4029,-0.05859375
4030,-0.05566406249999999
4031,-0.052734375
4032,-0.04687499999999999
4033,-0.04101562499999999
4034,-0.0380859375
4035,-0.03515625
4036,-0.029296875
4037,-0.023437499999999997
4038,-0.020507812499999997
4039,-0.0146484375
4040,-0.0087890625
4041,-0.005859374999999999
4042,-0.0029296874999999996
4043,0.0
4044,0.0029296874999999996
4045,0.0087890625
4046,0.0146484375
4047,0.017578125
4048,0.020507812499999997
4049,0.020507812499999997
4050,0.020507812499999997
4051,0.020507812499999997
4052,0.020507812499999997
4053,0.020507812499999997
4054,0.020507812499999997
4055,0.023437499999999997
4056,0.023437499999999997
4057,0.023437499999999997
4058,0.020507812499999997
4059,0.020507812499999997
4060,0.020507812499999997
4061,0.020507812499999997
4062,0.020507812499999997
4063,0.020507812499999997
4064,0.017578125
4065,0.017578125
4066,0.020507812499999997
4067,0.020507812499999997
4068,0.020507812499999997
4069,0.017578125
4070,0.020507812499999997
4071,0.017578125
4072,0.017578125
4073,0.017578125
4074,0.017578125
4075,0.017578125
4076,0.017578125
4077,0.017578125
4078,0.0146484375
4079,0.017578125
4080,0.017578125
4081,0.0146484375
4082,0.017578125
4083,0.017578125
4084,0.017578125
4085,0.017578125
4086,0.0146484375
4087,0.0146484375
4088,0.0146484375
4089,0.0146484375
4090,0.0146484375
4091,0.011718749999999998
4092,0.011718749999999998
4093,0.011718749999999998
4094,0.011718749999999998
4095,0.011718749999999998
4096,0.011718749999999998
4097,0.0087890625
4098,0.0087890625
4099,0.0087890625
4100,0.0087890625
4101,0.005859374999999999
4102,0.005859374999999999
4103,0.005859374999999999
4104,0.0029296874999999996
4105,0.0029296874999999996
4106,0.0029296874999999996
4107,0.0029296874999999996
4108,0.0029296874999999996
4109,0.0029296874999999996
4110,0.0029296874999999996
4111,0.0029296874999999996
4112,0.0029296874999999996
4113,0.0029296874999999996
4114,0.0
4115,0.0
4116,0.0
4117,0.0
4118,0.0
4119,0.0
4120,-0.0029296874999999996
4121,0.0
4122,0.0
4123,0.0
4124,0.0
4125,0.0
4126,0.0
4127,0.0087890625
4128,0.017578125
4129,0.0263671875
4130,0.03515625
4131,0.0498046875
4132,0.05859375
4133,0.0732421875
4134,0.0849609375
4135,0.1025390625
4136,0.1142578125
4137,0.12890624999999997
4138,0.1376953125
4139,0.123046875
4140,0.1083984375
4141,0.07910156249999999
4142,0.05566406249999999
4143,0.0146484375
4144,-0.023437499999999997
4145,-0.0703125
4146,-0.1025390625
4147,-0.15234375
4148,-0.19335937499999997
4149,-0.24023437499999997
4150,-0.2841796875
4151,-0.33105468749999994
4152,-0.3662109375
4153,-0.4189453125
4154,-0.45703125
4155,-0.5068359375
4156,-0.5419921875
4157,-0.5888671875
4158,-0.6298828125
4159,-0.673828125
4160,-0.7119140625
4161,-0.755859375
4162,-0.7880859374999999
4163,-0.8115234375
4164,-0.8261718749999999
4165,-0.8349609375
4166,-0.837890625
4167,-0.8115234375
4168,-0.7880859374999999
4169,-0.7412109375
4170,-0.697265625
4171,-0.6416015624999999
4172,-0.59765625
4173,-0.5361328124999999
4174,-0.48632812499999994
4175,-0.4189453125
4176,-0.36914062499999994
4177,-0.3046875
4178,-0.2490234375
4179,-0.181640625
4180,-0.123046875
4181,-0.05859375
4182,-0.0087890625
4183,0.05566406249999999
4184,0.11132812499999999
4185,0.1728515625
4186,0.2197265625
4187,0.28125
4188,0.33105468749999994
4189,0.38964843749999994
4190,0.43359375
4191,0.45117187499999994
4192,0.462890625
4193,0.45703125
4194,0.44531249999999994
4195,0.4248046875
4196,0.404296875
4197,0.37499999999999994
4198,0.3486328125
4199,0.31347656249999994
4200,0.2841796875
4201,0.2490234375
4202,0.22265624999999997
4203,0.19921875
4204,0.18457031249999997
4205,0.169921875
4206,0.15820312499999997
4207,0.1494140625
4208,0.1435546875
4209,0.13476562499999997
4210,0.1318359375
4211,0.1259765625
4212,0.123046875
4213,0.12011718749999999
4214,0.1142578125
4215,0.11132812499999999
4216,0.11132812499999999
4217,0.1083984375
4218,0.10546875
4219,0.1025390625
4220,0.1025390625
4221,0.099609375
4222,0.09667968749999999
4223,0.09667968749999999
4224,0.09667968749999999
4225,0.09667968749999999
4226,0.09374999999999999
4227,0.0908203125
4228,0.087890625
4229,0.0849609375
4230,0.0849609375
4231,0.08203124999999999
4232,0.08203124999999999
4233,0.07910156249999999
4234,0.076171875
4235,0.076171875
4236,0.0732421875
4237,0.0732421875
4238,0.0732421875
4239,0.0732421875
4240,0.0703125
4241,0.06445312499999999
4242,0.06445312499999999
4243,0.05859375
4244,0.05566406249999999
4245,0.05566406249999999
4246,0.052734375
4247,0.0498046875
4248,0.04687499999999999
4249,0.0439453125
4250,0.0439453125
4251,0.0439453125
4252,0.04101562499999999
4253,0.0380859375
4254,0.03515625
4255,0.03222656249999999
4256,0.029296875
4257,0.0263671875
4258,0.0263671875
4259,0.0263671875
4260,0.0263671875
4261,0.0263671875
4262,0.023437499999999997
4263,0.020507812499999997
4264,0.020507812499999997
4265,0.017578125
4266,0.017578125
4267,0.0146484375
4268,0.0146484375
4269,0.011718749999999998
4270,0.0087890625
4271,0.0087890625
4272,0.005859374999999999
4273,0.0029296874999999996
4274,0.0
4275,0.0
4276,0.0
4277,0.0
4278,-0.0029296874999999996
4279,-0.005859374999999999
4280,-0.005859374999999999
4281,-0.011718749999999998
4282,-0.011718749999999998
4283,-0.0146484375
4284,-0.0146484375
4285,-0.020507812499999997
4286,-0.020507812499999997
4287,-0.020507812499999997
4288,-0.023437499999999997
4289,-0.023437499999999997
4290,-0.023437499999999997
4291,-0.023437499999999997
4292,-0.023437499999999997
4293,-0.0263671875
4294,-0.029296875
4295,-0.03222656249999999
4296,-0.03222656249999999
4297,-0.03222656249999999
4298,-0.03222656249999999
4299,-0.029296875
4300,-0.03222656249999999
4301,-0.03515625
4302,-0.03515625
4303,-0.03515625
4304,-0.0380859375
4305,-0.0380859375
4306,-0.0380859375
4307,-0.04101562499999999
4308,-0.04101562499999999
4309,-0.0439453125
4310,-0.0439453125
4311,-0.0439453125
4312,-0.0439453125
4313,-0.04687499999999999
4314,-0.04687499999999999
4315,-0.04687499999999999
4316,-0.0498046875
4317,-0.0498046875
4318,-0.052734375
4319,-0.052734375
4320,-0.052734375
4321,-0.05566406249999999
4322,-0.05859375
4323,-0.05859375
4324,-0.0615234375
4325,-0.0615234375
4326,-0.0615234375
4327,-0.06738281249999999
4328,-0.06738281249999999
4329,-0.06738281249999999
4330,-0.06738281249999999
4331,-0.06738281249999999
4332,-0.06738281249999999
4333,-0.06738281249999999
4334,-0.0703125
4335,-0.0732421875
4336,-0.0732421875
4337,-0.0732421875
4338,-0.0732421875
4339,-0.0732421875
4340,-0.0732421875
4341,-0.076171875
4342,-0.0732421875
4343,-0.076171875
4344,-0.07910156249999999
4345,-0.08203124999999999
4346,-0.07910156249999999
4347,-0.08203124999999999
4348,-0.08203124999999999
4349,-0.0849609375
4350,-0.08203124999999999
4351,-0.0849609375
4352,-0.0849609375
4353,-0.0849609375
4354,-0.08203124999999999
4355,-0.08203124999999999
4356,-0.08203124999999999
4357,-0.08203124999999999
4358,-0.08203124999999999
4359,-0.08203124999999999
4360,-0.0849609375
4361,-0.08203124999999999
4362,-0.08203124999999999
4363,-0.08203124999999999
4364,-0.07910156249999999
4365,-0.08203124999999999
4366,-0.08203124999999999
4367,-0.08203124999999999
4368,-0.0849609375
4369,-0.087890625
4370,-0.0908203125
4371,-0.0908203125
4372,-0.0908203125
4373,-0.09374999999999999
4374,-0.09667968749999999
4375,-0.1025390625
4376,-0.10546875
4377,-0.1083984375
4378,-0.1083984375
4379,-0.11132812499999999
4380,-0.1142578125
4381,-0.1171875
4382,-0.12011718749999999
4383,-0.12011718749999999
4384,-0.12011718749999999
4385,-0.123046875
4386,-0.123046875
4387,-0.1259765625
4388,-0.1259765625
4389,-0.12890624999999997
4390,-0.1318359375
4391,-0.1318359375
4392,-0.1318359375
4393,-0.13476562499999997
4394,-0.13476562499999997
4395,-0.1376953125
4396,-0.13476562499999997
4397,-0.1376953125
4398,-0.1376953125
4399,-0.13476562499999997
4400,-0.13476562499999997
4401,-0.1318359375
4402,-0.1259765625
4403,-0.12011718749999999
4404,-0.1171875
4405,-0.1142578125
4406,-0.1083984375
4407,-0.099609375
4408,-0.09667968749999999
4409,-0.09374999999999999
4410,-0.087890625
4411,-0.08203124999999999
4412,-0.07910156249999999
4413,-0.0732421875
4414,-0.06738281249999999
4415,-0.0615234375
4416,-0.05859375
4417,-0.052734375
4418,-0.04687499999999999
4419,-0.04687499999999999
4420,-0.04101562499999999
4421,-0.0380859375
4422,-0.03515625
4423,-0.029296875
4424,-0.029296875
4425,-0.023437499999999997
4426,-0.023437499999999997
4427,-0.020507812499999997
4428,-0.0146484375
4429,-0.011718749999999998
4430,-0.0087890625
4431,-0.0029296874999999996
4432,0.0
4433,0.005859374999999999
4434,0.011718749999999998
4435,0.023437499999999997
4436,0.029296875
4437,0.0380859375
4438,0.04687499999999999
4439,0.05859375
4440,0.06738281249999999
4441,0.076171875
4442,0.0849609375
4443,0.09374999999999999
4444,0.1025390625
4445,0.1142578125
4446,0.12011718749999999
4447,0.1259765625
4448,0.1318359375
4449,0.13476562499999997
4450,0.1376953125
4451,0.140625
4452,0.1435546875
4453,0.146484375
4454,0.1494140625
4455,0.15234375
4456,0.15527343749999997
4457,0.1611328125
4458,0.1611328125
4459,0.16406249999999997
4460,0.16406249999999997
4461,0.16406249999999997
4462,0.16406249999999997
4463,0.16699218749999997
4464,0.16699218749999997
4465,0.16699218749999997
4466,0.16406249999999997
4467,0.16406249999999997
4468,0.16406249999999997
4469,0.16406249999999997
4470,0.16406249999999997
4471,0.1611328125
4472,0.15820312499999997
4473,0.15234375
4474,0.15234375
4475,0.15234375
4476,0.1494140625
4477,0.1494140625
4478,0.146484375
4479,0.1435546875
4480,0.140625
4481,0.1376953125
4482,0.1376953125
4483,0.13476562499999997
4484,0.1318359375
4485,0.1318359375
4486,0.1318359375
4487,0.1318359375
4488,0.12890624999999997
4489,0.12890624999999997
4490,0.1259765625
4491,0.123046875
4492,0.123046875
4493,0.12011718749999999
4494,0.12011718749999999
4495,0.12011718749999999
4496,0.1171875
4497,0.1142578125
4498,0.1142578125
4499,0.11132812499999999
4500,0.1083984375
4501,0.1083984375
4502,0.1083984375
4503,0.10546875
4504,0.1025390625
4505,0.1025390625
4506,0.1025390625
4507,0.099609375
4508,0.099609375
4509,0.09667968749999999
4510,0.09374999999999999
4511,0.09374999999999999
4512,0.0908203125
4513,0.0908203125
4514,0.087890625
4515,0.087890625
4516,0.0849609375
4517,0.0849609375
4518,0.08203124999999999
4519,0.08203124999999999
4520,0.08203124999999999
4521,0.07910156249999999
4522,0.07910156249999999
4523,0.076171875
4524,0.0732421875
4525,0.0732421875
4526,0.0732421875
4527,0.0732421875
4528,0.0703125
4529,0.0703125
4530,0.06738281249999999
4531,0.06738281249999999
4532,0.06738281249999999
4533,0.06445312499999999
4534,0.06445312499999999
4535,0.06445312499999999
4536,0.0615234375
4537,0.0615234375
4538,0.05859375
4539,0.05859375
4540,0.05859375
4541,0.05859375
4542,0.05859375
4543,0.05566406249999999
4544,0.05566406249999999
4545,0.05566406249999999
4546,0.05566406249999999
4547,0.05566406249999999
4548,0.052734375
4549,0.052734375
4550,0.052734375
4551,0.0498046875
4552,0.0498046875
4553,0.04687499999999999
4554,0.04687499999999999
4555,0.0439453125
4556,0.0439453125
4557,0.04101562499999999
4558,0.04101562499999999
4559,0.04101562499999999
4560,0.0380859375
4561,0.0380859375
4562,0.0380859375
4563,0.03515625
4564,0.03515625
4565,0.03515625
4566,0.03515625
4567,0.03222656249999999
4568,0.029296875
4569,0.029296875
4570,0.029296875
4571,0.0263671875
4572,0.0263671875
4573,0.0263671875
4574,0.0263671875
4575,0.0263671875
4576,0.0263671875
4577,0.0263671875
4578,0.0263671875
4579,0.0263671875
4580,0.0263671875
4581,0.0263671875
4582,0.0263671875
4583,0.0263671875
4584,0.023437499999999997
4585,0.023437499999999997
4586,0.023437499999999997
4587,0.023437499999999997
4588,0.020507812499999997
4589,0.020507812499999997
4590,0.020507812499999997
4591,0.020507812499999997
4592,0.020507812499999997
4593,0.020507812499999997
4594,0.017578125
4595,0.017578125
4596,0.017578125
4597,0.017578125
4598,0.0146484375
4599,0.0146484375
4600,0.0146484375
4601,0.011718749999999998
4602,0.011718749999999998
4603,0.011718749999999998
4604,0.011718749999999998
4605,0.011718749999999998
4606,0.011718749999999998
4607,0.011718749999999998
4608,0.011718749999999998
4609,0.011718749999999998
4610,0.011718749999999998
4611,0.0087890625
4612,0.0087890625
4613,0.0087890625
4614,0.0087890625
4615,0.0087890625
4616,0.0087890625
4617,0.0029296874999999996
4618,0.005859374999999999
4619,0.0029296874999999996
4620,0.0029296874999999996
4621,0.0029296874999999996
4622,0.0029296874999999996
4623,0.0
4624,0.0
4625,0.0
4626,-0.0029296874999999996
4627,0.0
4628,-0.0029296874999999996
4629,-0.0029296874999999996
4630,-0.0029296874999999996
4631,-0.0029296874999999996
4632,0.0
4633,-0.0029296874999999996
4634,-0.0029296874999999996
4635,-0.0029296874999999996
4636,-0.0029296874999999996
4637,-0.0029296874999999996
4638,-0.0029296874999999996
4639,-0.005859374999999999
4640,-0.005859374999999999
4641,-0.0029296874999999996
4642,-0.005859374999999999
4643,-0.005859374999999999
4644,-0.005859374999999999
4645,-0.005859374999999999
4646,-0.0087890625
4647,-0.0087890625
4648,-0.0087890625
4649,-0.0087890625
4650,-0.0087890625
4651,-0.0087890625
4652,-0.0087890625
4653,-0.0087890625
4654,-0.011718749999999998
4655,-0.011718749999999998
4656,-0.011718749999999998
4657,-0.011718749999999998
4658,-0.011718749999999998
4659,-0.0146484375
4660,-0.0146484375
4661,-0.0146484375
4662,-0.011718749999999998
4663,-0.011718749999999998
4664,-0.011718749999999998
4665,-0.011718749999999998
4666,-0.011718749999999998
4667,-0.011718749999999998
4668,-0.0146484375
4669,-0.0146484375
4670,-0.0146484375
4671,-0.011718749999999998
4672,-0.011718749999999998
4673,-0.011718749999999998
4674,-0.011718749999999998
4675,-0.011718749999999998
4676,-0.011718749999999998
4677,-0.011718749999999998
4678,-0.011718749999999998
4679,-0.011718749999999998
4680,-0.011718749999999998
4681,-0.011718749999999998
4682,-0.0087890625
4683,-0.011718749999999998
4684,-0.011718749999999998
4685,-0.011718749999999998
4686,-0.011718749999999998
4687,-0.011718749999999998
4688,-0.0146484375
4689,-0.0146484375
4690,-0.017578125
4691,-0.017578125
4692,-0.017578125
4693,-0.017578125
4694,-0.017578125
4695,-0.017578125
4696,-0.017578125
4697,-0.020507812499999997
4698,-0.020507812499999997
4699,-0.020507812499999997
4700,-0.020507812499999997
4701,-0.020507812499999997
4702,-0.020507812499999997
4703,-0.020507812499999997
4704,-0.023437499999999997
4705,-0.023437499999999997
4706,-0.023437499999999997
4707,-0.023437499999999997
4708,-0.023437499999999997
4709,-0.0263671875
4710,-0.023437499999999997
4711,-0.023437499999999997
4712,-0.023437499999999997
4713,-0.0263671875
4714,-0.029296875
4715,-0.03222656249999999
4716,-0.03515625
4717,-0.0380859375
4718,-0.04101562499999999
4719,-0.0439453125
4720,-0.04687499999999999
4721,-0.052734375
4722,-0.05566406249999999
4723,-0.0615234375
4724,-0.06738281249999999
4725,-0.0732421875
4726,-0.076171875
4727,-0.07910156249999999
4728,-0.0849609375
4729,-0.087890625
4730,-0.0908203125
4731,-0.09374999999999999
4732,-0.09667968749999999
4733,-0.09667968749999999
4734,-0.099609375
4735,-0.1025390625
4736,-0.10546875
4737,-0.10546875
4738,-0.10546875
4739,-0.10546875
4740,-0.10546875
4741,-0.1083984375
4742,-0.1083984375
4743,-0.11132812499999999
4744,-0.11132812499999999
4745,-0.11132812499999999
4746,-0.1083984375
4747,-0.1083984375
4748,-0.1083984375
4749,-0.1083984375
4750,-0.11132812499999999
4751,-0.1083984375
4752,-0.1083984375
4753,-0.1083984375
4754,-0.1083984375
4755,-0.10546875
4756,-0.10546875
4757,-0.1025390625
4758,-0.1025390625
4759,-0.099609375
4760,-0.099609375
4761,-0.09667968749999999
4762,-0.09374999999999999
4763,-0.09374999999999999
4764,-0.09374999999999999
4765,-0.087890625
4766,-0.0849609375
4767,-0.0849609375
4768,-0.08203124999999999
4769,-0.076171875
4770,-0.076171875
4771,-0.0732421875
4772,-0.06738281249999999
4773,-0.06445312499999999
4774,-0.0615234375
4775,-0.05859375
4776,-0.05566406249999999
4777,-0.052734375
4778,-0.0498046875
4779,-0.0439453125
4780,-0.0380859375
4781,-0.03515625
4782,-0.029296875
4783,-0.023437499999999997
4784,-0.020507812499999997
4785,-0.011718749999999998
4786,-0.011718749999999998
4787,-0.005859374999999999
4788,0.0
4789,0.0087890625
4790,0.011718749999999998
4791,0.017578125
4792,0.020507812499999997
4793,0.023437499999999997
4794,0.023437499999999997
4795,0.0263671875
4796,0.0263671875
4797,0.0263671875
4798,0.0263671875
4799,0.0263671875
4800,0.023437499999999997
4801,0.023437499999999997
4802,0.023437499999999997
4803,0.023437499999999997
4804,0.020507812499999997
4805,0.020507812499999997
4806,0.020507812499999997
4807,0.020507812499999997
4808,0.020507812499999997
4809,0.020507812499999997
4810,0.020507812499999997
4811,0.020507812499999997
4812,0.020507812499999997
4813,0.020507812499999997
4814,0.020507812499999997
4815,0.020507812499999997
4816,0.020507812499999997
4817,0.020507812499999997
4818,0.020507812499999997
4819,0.020507812499999997
4820,0.017578125
4821,0.017578125
4822,0.017578125
4823,0.0146484375
4824,0.0146484375
4825,0.017578125
4826,0.0146484375
4827,0.0146484375
4828,0.0146484375
4829,0.0146484375
4830,0.0146484375
4831,0.0146484375
4832,0.0146484375
4833,0.011718749999999998
4834,0.011718749999999998
4835,0.011718749999999998
4836,0.0087890625
4837,0.0087890625
4838,0.0087890625
4839,0.0087890625
4840,0.0087890625
4841,0.0087890625
4842,0.0087890625
4843,0.0087890625
4844,0.0087890625
4845,0.0087890625
4846,0.005859374999999999
4847,0.005859374999999999
4848,0.0087890625
4849,0.005859374999999999
4850,0.0087890625
4851,0.0087890625
4852,0.0087890625
4853,0.005859374999999999
4854,0.0087890625
4855,0.005859374999999999
4856,0.0029296874999999996
4857,0.0029296874999999996
4858,0.0029296874999999996
4859,0.0029296874999999996
4860,0.0029296874999999996
4861,0.0029296874999999996
4862,0.0029296874999999996
4863,0.0029296874999999996
4864,0.0
4865,0.0
4866,0.0029296874999999996
4867,0.0
4868,0.0029296874999999996
4869,0.0
4870,0.0
4871,0.0
4872,0.0029296874999999996
4873,0.005859374999999999
4874,0.0146484375
4875,0.0263671875
4876,0.03515625
4877,0.04687499999999999
4878,0.05859375
4879,0.0732421875
4880,0.087890625
4881,0.1025390625
4882,0.1142578125
4883,0.1318359375
4884,0.1376953125
4885,0.1259765625
4886,0.1142578125
4887,0.08203124999999999
4888,0.05566406249999999
4889,0.0146484375
4890,-0.020507812499999997
4891,-0.06445312499999999
4892,-0.099609375
4893,-0.146484375
4894,-0.18749999999999997
4895,-0.23730468750000003
4896,-0.2783203125
4897,-0.32519531249999994
4898,-0.3662109375
4899,-0.416015625
4900,-0.45703125
4901,-0.5068359375
4902,-0.5419921875
4903,-0.5888671875
4904,-0.6298828125
4905,-0.6767578125
4906,-0.7119140625
4907,-0.755859375
4908,-0.791015625
4909,-0.8115234375
4910,-0.8261718749999999
4911,-0.8349609375
4912,-0.837890625
4913,-0.814453125
4914,-0.7851562499999999
4915,-0.7412109375
4916,-0.703125
4917,-0.6503906249999999
4918,-0.6005859375
4919,-0.5390624999999999
4920,-0.4833984375
4921,-0.4189453125
4922,-0.36914062499999994
4923,-0.3046875
4924,-0.2490234375
4925,-0.18457031249999997
4926,-0.1318359375
4927,-0.0732421875
4928,-0.020507812499999997
4929,0.0439453125
4930,0.099609375
4931,0.16406249999999997
4932,0.2109375
4933,0.275390625
4934,0.32519531249999994
4935,0.38671874999999994
4936,0.43066406249999994
4937,0.44824218749999994
4938,0.45703125
4939,0.44824218749999994
4940,0.439453125
4941,0.4189453125
4942,0.3984375
4943,0.37207031249999994
4944,0.345703125
4945,0.31347656249999994
4946,0.287109375
4947,0.2490234375
4948,0.22265624999999997
4949,0.19921875
4950,0.18457031249999997
4951,0.169921875
4952,0.1611328125
4953,0.1494140625
4954,0.140625
4955,0.13476562499999997
4956,0.12890624999999997
4957,0.123046875
4958,0.12011718749999999
4959,0.1171875
4960,0.1142578125
4961,0.11132812499999999
4962,0.1083984375
4963,0.10546875
4964,0.10546875
4965,0.1025390625
4966,0.099609375
4967,0.099609375
4968,0.099609375
4969,0.09667968749999999
4970,0.09374999999999999
4971,0.0908203125
4972,0.0908203125
4973,0.087890625
4974,0.087890625
4975,0.0849609375
4976,0.08203124999999999
4977,0.07910156249999999
4978,0.076171875
4979,0.0732421875
4980,0.0732421875
4981,0.0703125
4982,0.0703125
4983,0.0703125
4984,0.06738281249999999
4985,0.06445312499999999
4986,0.06445312499999999
4987,0.06445312499999999
4988,0.06445312499999999
4989,0.05859375
4990,0.05566406249999999
4991,0.05566406249999999
4992,0.052734375
4993,0.0498046875
4994,0.0498046875
4995,0.04687499999999999
4996,0.0439453125
4997,0.04101562499999999
4998,0.04101562499999999
4999,0.0380859375
5000,0.0380859375
5001,0.03515625
5002,0.03222656249999999
5003,0.03222656249999999
5004,0.0263671875
5005,0.0263671875
5006,0.0263671875
5007,0.023437499999999997
5008,0.020507812499999997
5009,0.020507812499999997
5010,0.017578125
5011,0.017578125
5012,0.017578125
5013,0.0146484375
5014,0.011718749999999998
5015,0.011718749999999998
5016,0.0087890625
5017,0.0087890625
5018,0.005859374999999999
5019,0.0029296874999999996
5020,0.0029296874999999996
5021,0.0
5022,0.0
5023,-0.0029296874999999996
5024,-0.0029296874999999996
5025,-0.005859374999999999
5026,-0.005859374999999999
5027,-0.0087890625
5028,-0.011718749999999998
5029,-0.011718749999999998
5030,-0.011718749999999998
5031,-0.011718749999999998
5032,-0.011718749999999998
5033,-0.011718749999999998
5034,-0.0146484375
5035,-0.020507812499999997
5036,-0.020507812499999997
5037,-0.023437499999999997
5038,-0.023437499999999997
5039,-0.0263671875
5040,-0.029296875
5041,-0.029296875
5042,-0.029296875
5043,-0.03222656249999999
5044,-0.03222656249999999
5045,-0.03222656249999999
5046,-0.03515625
5047,-0.03515625
5048,-0.03222656249999999
5049,-0.03515625
5050,-0.03515625
5051,-0.03515625
5052,-0.03515625
5053,-0.0380859375
5054,-0.04101562499999999
5055,-0.04101562499999999
5056,-0.0439453125
5057,-0.0439453125
5058,-0.04687499999999999
5059,-0.04687499999999999
5060,-0.0498046875
5061,-0.052734375
5062,-0.052734375
5063,-0.052734375
5064,-0.05566406249999999
5065,-0.05859375
5066,-0.05859375
5067,-0.05859375
5068,-0.05859375
5069,-0.05859375
5070,-0.0615234375
5071,-0.05859375
5072,-0.05859375
5073,-0.05859375
5074,-0.0615234375
5075,-0.0615234375
5076,-0.0615234375
5077,-0.06445312499999999
5078,-0.06445312499999999
5079,-0.06445312499999999
5080,-0.06738281249999999
5081,-0.06738281249999999
5082,-0.0703125
5083,-0.0703125
5084,-0.0703125
5085,-0.0703125
5086,-0.0703125
5087,-0.0703125
5088,-0.0732421875
5089,-0.0732421875
5090,-0.076171875
5091,-0.076171875
5092,-0.076171875
5093,-0.07910156249999999
5094,-0.07910156249999999
5095,-0.076171875
5096,-0.076171875
5097,-0.07910156249999999
5098,-0.07910156249999999
5099,-0.08203124999999999
5100,-0.08203124999999999
5101,-0.07910156249999999
5102,-0.07910156249999999
5103,-0.07910156249999999
5104,-0.08203124999999999
5105,-0.08203124999999999
5106,-0.08203124999999999
5107,-0.08203124999999999
5108,-0.07910156249999999
5109,-0.08203124999999999
5110,-0.08203124999999999
5111,-0.08203124999999999
5112,-0.07910156249999999
5113,-0.08203124999999999
5114,-0.08203124999999999
5115,-0.0849609375
5116,-0.087890625
5117,-0.0908203125
5118,-0.09374999999999999
5119,-0.09374999999999999
5120,-0.09667968749999999
5121,-0.099609375
5122,-0.099609375
5123,-0.1025390625
5124,-0.10546875
5125,-0.1083984375
5126,-0.1142578125
5127,-0.1142578125
5128,-0.12011718749999999
5129,-0.123046875
5130,-0.123046875
5131,-0.1259765625
5132,-0.12890624999999997
5133,-0.12890624999999997
5134,-0.12890624999999997
5135,-0.12890624999999997
5136,-0.12890624999999997
5137,-0.1318359375
5138,-0.13476562499999997
5139,-0.13476562499999997
5140,-0.13476562499999997
5141,-0.1376953125
5142,-0.1376953125
5143,-0.1376953125
5144,-0.140625
5145,-0.1376953125
5146,-0.1376953125
5147,-0.1318359375
5148,-0.1259765625
5149,-0.12011718749999999
5150,-0.1171875
5151,-0.1142578125
5152,-0.1083984375
5153,-0.1025390625
5154,-0.09667968749999999
5155,-0.0908203125
5156,-0.087890625
5157,-0.08203124999999999
5158,-0.076171875
5159,-0.0703125
5160,-0.06738281249999999
5161,-0.0615234375
5162,-0.0615234375
5163,-0.05859375
5164,-0.052734375
5165,-0.0498046875
5166,-0.0439453125
5167,-0.04101562499999999
5168,-0.0380859375
5169,-0.03222656249999999
5170,-0.029296875
5171,-0.0263671875
5172,-0.023437499999999997
5173,-0.023437499999999997
5174,-0.020507812499999997
5175,-0.0146484375
5176,-0.0146484375
5177,-0.0087890625
5178,0.0
5179,0.005859374999999999
5180,0.011718749999999998
5181,0.020507812499999997
5182,0.03222656249999999
5183,0.04101562499999999
5184,0.0498046875
5185,0.05859375
5186,0.06738281249999999
5187,0.076171875
5188,0.08203124999999999
5189,0.0908203125
5190,0.1025390625
5191,0.1083984375
5192,0.1171875
5193,0.12011718749999999
5194,0.1259765625
5195,0.1318359375
5196,0.1376953125
5197,0.1435546875
5198,0.1435546875
5199,0.1494140625
5200,0.15234375
5201,0.15527343749999997
5202,0.15820312499999997
5203,0.1611328125
5204,0.16406249999999997
5205,0.16406249999999997
5206,0.16406249999999997
5207,0.16406249999999997
5208,0.16406249999999997
5209,0.16406249999999997
5210,0.16406249999999997
5211,0.16406249999999997
5212,0.16406249999999997
5213,0.1611328125
5214,0.1611328125
5215,0.1611328125
5216,0.15820312499999997
5217,0.15820312499999997
5218,0.15820312499999997
5219,0.15527343749999997
5220,0.15527343749999997
5221,0.15234375
5222,0.15234375
5223,0.1494140625
5224,0.1494140625
5225,0.146484375
5226,0.1435546875
5227,0.140625
5228,0.140625
5229,0.1376953125
5230,0.1376953125
5231,0.13476562499999997
5232,0.12890624999999997
5233,0.12890624999999997
5234,0.1259765625
5235,0.123046875
5236,0.12011718749999999
5237,0.1171875
5238,0.1142578125
5239,0.1142578125
5240,0.1142578125
5241,0.1142578125
5242,0.1142578125
5243,0.1142578125
5244,0.11132812499999999
5245,0.1083984375
5246,0.1083984375
5247,0.10546875
5248,0.1025390625
5249,0.1025390625
5250,0.1025390625
5251,0.099609375
5252,0.099609375
5253,0.099609375
5254,0.09667968749999999
5255,0.09667968749999999
5256,0.09374999999999999
5257,0.0908203125
5258,0.0908203125
5259,0.087890625
5260,0.087890625
5261,0.08203124999999999
5262,0.08203124999999999
5263,0.07910156249999999
5264,0.07910156249999999
5265,0.07910156249999999
5266,0.076171875
5267,0.076171875
5268,0.0732421875
5269,0.0703125
5270,0.0703125
5271,0.06738281249999999
5272,0.06738281249999999
5273,0.06738281249999999
5274,0.06738281249999999
5275,0.06445312499999999
5276,0.06445312499999999
5277,0.06445312499999999
5278,0.06445312499999999
5279,0.06445312499999999
5280,0.06445312499999999
5281,0.0615234375
5282,0.0615234375
5283,0.05859375
5284,0.05859375
5285,0.05859375
5286,0.05859375
5287,0.05859375
5288,0.05566406249999999
5289,0.05566406249999999
5290,0.05566406249999999
5291,0.052734375
5292,0.052734375
5293,0.0498046875
5294,0.0498046875
5295,0.0498046875
5296,0.04687499999999999
5297,0.04687499999999999
5298,0.0498046875
5299,0.04687499999999999
5300,0.04687499999999999
5301,0.0439453125
5302,0.0439453125
5303,0.0439453125
5304,0.04101562499999999
5305,0.04101562499999999
5306,0.0380859375
5307,0.0380859375
5308,0.0380859375
5309,0.03515625
5310,0.03515625
5311,0.03515625
5312,0.03515625
5313,0.03222656249999999
5314,0.03222656249999999
5315,0.029296875
5316,0.0263671875
5317,0.0263671875
5318,0.0263671875
5319,0.0263671875
5320,0.0263671875
5321,0.0263671875
5322,0.029296875
5323,0.0263671875
5324,0.0263671875
5325,0.0263671875
5326,0.0263671875
5327,0.0263671875
5328,0.023437499999999997
5329,0.020507812499999997
5330,0.020507812499999997
5331,0.017578125
5332,0.020507812499999997
5333,0.020507812499999997
5334,0.020507812499999997
5335,0.020507812499999997
5336,0.020507812499999997
5337,0.020507812499999997
5338,0.020507812499999997
5339,0.017578125
5340,0.017578125
5341,0.017578125
5342,0.017578125
5343,0.017578125
5344,0.017578125
5345,0.017578125
5346,0.020507812499999997
5347,0.017578125
5348,0.017578125
5349,0.0146484375
5350,0.0146484375
5351,0.011718749999999998
5352,0.011718749999999998
5353,0.0146484375
5354,0.0146484375
5355,0.017578125
5356,0.0146484375
5357,0.0146484375
5358,0.011718749999999998
5359,0.011718749999999998
5360,0.011718749999999998
5361,0.0087890625
5362,0.0087890625
5363,0.0087890625
5364,0.0087890625
5365,0.0087890625
5366,0.0087890625
5367,0.0087890625
5368,0.0087890625
5369,0.0087890625
5370,0.0087890625
5371,0.0029296874999999996
5372,0.0029296874999999996
5373,0.0029296874999999996
5374,0.0029296874999999996
5375,0.0029296874999999996
5376,0.0
5377,0.0
5378,0.0
5379,0.0
5380,-0.0029296874999999996
5381,-0.0029296874999999996
5382,-0.0029296874999999996
5383,-0.0029296874999999996
5384,-0.005859374999999999
5385,-0.005859374999999999
5386,-0.005859374999999999
5387,-0.005859374999999999
5388,-0.0029296874999999996
5389,-0.005859374999999999
5390,-0.005859374999999999
5391,-0.005859374999999999
5392,-0.005859374999999999
5393,-0.0087890625
5394,-0.0087890625
5395,-0.0087890625
5396,-0.011718749999999998
5397,-0.0087890625
5398,-0.0087890625
5399,-0.0087890625
5400,-0.011718749999999998
5401,-0.011718749999999998
5402,-0.0146484375
5403,-0.0146484375
5404,-0.0146484375
5405,-0.0146484375
5406,-0.0146484375
5407,-0.0146484375
5408,-0.0146484375
5409,-0.0146484375
5410,-0.017578125
5411,-0.017578125
5412,-0.017578125
5413,-0.017578125
5414,-0.017578125
5415,-0.017578125
5416,-0.017578125
5417,-0.017578125
5418,-0.017578125
5419,-0.0146484375
5420,-0.0146484375
5421,-0.0146484375
5422,-0.0146484375
5423,-0.0146484375
5424,-0.0146484375
5425,-0.0146484375
5426,-0.0146484375
5427,-0.017578125
5428,-0.0146484375
5429,-0.017578125
5430,-0.017578125
5431,-0.017578125
5432,-0.0146484375
5433,-0.0146484375
5434,-0.0146484375
5435,-0.0146484375
5436,-0.0146484375
5437,-0.0146484375
5438,-0.0146484375
5439,-0.017578125
5440,-0.017578125
5441,-0.0146484375
5442,-0.0146484375
5443,-0.0146484375
5444,-0.0146484375
5445,-0.017578125
5446,-0.017578125
5447,-0.0146484375
5448,-0.017578125
5449,-0.017578125
5450,-0.0146484375
5451,-0.0146484375
5452,-0.0146484375
5453,-0.017578125
5454,-0.017578125
5455,-0.0146484375
5456,-0.017578125
5457,-0.020507812499999997
5458,-0.020507812499999997
5459,-0.023437499999999997
5460,-0.023437499999999997
5461,-0.0263671875
5462,-0.03222656249999999
5463,-0.0380859375
5464,-0.04101562499999999
5465,-0.04687499999999999
5466,-0.052734375
5467,-0.05566406249999999
5468,-0.05859375
5469,-0.06445312499999999
5470,-0.06738281249999999
5471,-0.0732421875
5472,-0.07910156249999999
5473,-0.0849609375
5474,-0.087890625
5475,-0.09374999999999999
5476,-0.09667968749999999
5477,-0.099609375
5478,-0.1025390625
5479,-0.10546875
5480,-0.10546875
5481,-0.10546875
5482,-0.1083984375
5483,-0.1083984375
5484,-0.11132812499999999
5485,-0.11132812499999999
5486,-0.1142578125
5487,-0.1142578125
5488,-0.1142578125
5489,-0.1142578125
5490,-0.1142578125
5491,-0.1171875
5492,-0.1171875
5493,-0.1171875
5494,-0.1142578125
5495,-0.11132812499999999
5496,-0.11132812499999999
5497,-0.1142578125
5498,-0.1083984375
5499,-0.1083984375
5500,-0.1083984375
5501,-0.10546875
5502,-0.10546875
5503,-0.10546875
5504,-0.10546875
5505,-0.10546875
5506,-0.1025390625
5507,-0.099609375
5508,-0.099609375
5509,-0.099609375
5510,-0.09667968749999999
5511,-0.0908203125
5512,-0.087890625
5513,-0.0849609375
5514,-0.08203124999999999
5515,-0.07910156249999999
5516,-0.076171875
5517,-0.0732421875
5518,-0.0703125
5519,-0.06738281249999999
5520,-0.06445312499999999
5521,-0.0615234375
5522,-0.05566406249999999
5523,-0.052734375
5524,-0.0498046875
5525,-0.0439453125
5526,-0.04101562499999999
5527,-0.03515625
5528,-0.029296875
5529,-0.023437499999999997
5530,-0.017578125
5531,-0.0146484375
5532,-0.011718749999999998
5533,-0.0029296874999999996
5534,0.0
5535,0.005859374999999999
5536,0.0087890625
5537,0.0146484375
5538,0.020507812499999997
5539,0.023437499999999997
5540,0.023437499999999997
5541,0.023437499999999997
5542,0.023437499999999997
5543,0.0263671875
5544,0.0263671875
5545,0.0263671875
5546,0.023437499999999997
5547,0.023437499999999997
5548,0.023437499999999997
5549,0.023437499999999997
5550,0.023437499999999997
5551,0.023437499999999997
5552,0.023437499999999997
5553,0.023437499999999997
5554,0.020507812499999997
5555,0.023437499999999997
5556,0.023437499999999997
5557,0.020507812499999997
5558,0.020507812499999997
5559,0.023437499999999997
5560,0.020507812499999997
5561,0.020507812499999997
5562,0.020507812499999997
5563,0.020507812499999997
5564,0.020507812499999997
5565,0.020507812499999997
5566,0.020507812499999997
5567,0.020507812499999997
5568,0.020507812499999997
5569,0.020507812499999997
5570,0.020507812499999997
5571,0.020507812499999997
5572,0.017578125
5573,0.017578125
5574,0.0146484375
5575,0.017578125
5576,0.0146484375
5577,0.011718749999999998
5578,0.011718749999999998
5579,0.011718749999999998
5580,0.011718749999999998
5581,0.0087890625
5582,0.011718749999999998
5583,0.011718749999999998
5584,0.0087890625
5585,0.011718749999999998
5586,0.0087890625
5587,0.0087890625
5588,0.0087890625
5589,0.0087890625
5590,0.0087890625
5591,0.005859374999999999
5592,0.005859374999999999
5593,0.005859374999999999
5594,0.005859374999999999
5595,0.005859374999999999
5596,0.0029296874999999996
5597,0.0029296874999999996
5598,0.0029296874999999996
5599,0.0029296874999999996
5600,0.0029296874999999996
5601,0.0029296874999999996
5602,0.0029296874999999996
5603,0.0029296874999999996
5604,0.0029296874999999996
5605,0.0029296874999999996
5606,0.0029296874999999996
5607,0.0029296874999999996
5608,0.0029296874999999996
5609,0.0
5610,0.0
5611,0.0
5612,0.0029296874999999996
5613,0.0
5614,0.0
5615,0.0
5616,-0.0029296874999999996
5617,-0.0029296874999999996
5618,-0.0029296874999999996
5619,0.005859374999999999
5620,0.011718749999999998
5621,0.023437499999999997
5622,0.03515625
5623,0.04687499999999999
5624,0.05859375
5625,0.0703125
5626,0.08203124999999999
5627,0.099609375
5628,0.11132812499999999
5629,0.12890624999999997
5630,0.1376953125
5631,0.123046875
5632,0.1142578125
5633,0.08203124999999999
5634,0.052734375
5635,0.011718749999999998
5636,-0.020507812499999997
5637,-0.06445312499999999
5638,-0.1025390625
5639,-0.15234375
5640,-0.1904296875
5641,-0.24316406249999997
5642,-0.28125
5643,-0.32812499999999994
5644,-0.36914062499999994
5645,-0.4189453125
5646,-0.4541015625
5647,-0.50390625
5648,-0.5419921875
5649,-0.5888671875
5650,-0.6269531249999999
5651,-0.673828125
5652,-0.7060546875
5653,-0.7529296874999999
5654,-0.7880859374999999
5655,-0.80859375
5656,-0.8232421875
5657,-0.83203125
5658,-0.83203125
5659,-0.8056640625
5660,-0.7792968749999999
5661,-0.7353515625
5662,-0.7001953125
5663,-0.64453125
5664,-0.59765625
5665,-0.5361328124999999
5666,-0.48632812499999994
5667,-0.421875
5668,-0.3662109375
5669,-0.298828125
5670,-0.24316406249999997
5671,-0.1787109375
5672,-0.12890624999999997
5673,-0.0615234375
5674,-0.0087890625
5675,0.05566406249999999
5676,0.1025390625
5677,0.16406249999999997
5678,0.21386718749999997
5679,0.275390625
5680,0.32812499999999994
5681,0.38378906249999994
5682,0.42773437499999994
5683,0.44531249999999994
5684,0.4541015625
5685,0.44824218749999994
5686,0.44238281249999994
5687,0.4189453125
5688,0.3984375
5689,0.36914062499999994
5690,0.3427734375
5691,0.31054687499999994
5692,0.2841796875
5693,0.24609375
5694,0.2197265625
5695,0.19921875
5696,0.18457031249999997
5697,0.169921875
5698,0.15820312499999997
5699,0.1494140625
5700,0.140625
5701,0.13476562499999997
5702,0.12890624999999997
5703,0.123046875
5704,0.1171875
5705,0.1142578125
5706,0.1142578125
5707,0.11132812499999999
5708,0.1083984375
5709,0.10546875
5710,0.10546875
5711,0.10546875
5712,0.1025390625
5713,0.099609375
5714,0.09667968749999999
5715,0.09374999999999999
5716,0.0908203125
5717,0.087890625
5718,0.087890625
5719,0.0849609375
5720,0.08203124999999999
5721,0.08203124999999999
5722,0.07910156249999999
5723,0.076171875
5724,0.076171875
5725,0.0732421875
5726,0.0703125
5727,0.0703125
5728,0.0703125
5729,0.06738281249999999
5730,0.06738281249999999
5731,0.06445312499999999
5732,0.06445312499999999
5733,0.0615234375
5734,0.0615234375
5735,0.0615234375
5736,0.05859375
5737,0.05566406249999999
5738,0.05566406249999999
5739,0.052734375
