,A2
0.0,556
0.001,555
0.002,557
0.003,557
0.004,560
0.005,561
0.006,561
0.007,566
0.008,564
0.009,563
0.01,563
0.011,567
0.012,565
0.013,566
0.014,558
0.015,553
0.016,550
0.017,550
0.018,552
0.019,550
0.02,557
0.021,569
0.022,574
0.023,574
0.024,567
0.025,556
0.026,543
0.027,534
0.028,535
0.029,543
0.03,543
0.031,537
0.032,533
0.033,522
0.034,525
0.035,529
0.036,523
0.037,515
0.038,512
0.039,509
0.04,500
0.041,499
0.042,504
0.043,503
0.044,509
0.045,512
0.046,506
0.047,507
0.048,506
0.049,504
0.05,505
0.051,507
0.052,509
0.053,504
0.054,499
0.055,495
0.056,492
0.057,492
0.058,487
0.059,485
0.06,480
0.061,480
0.062,481
0.063,484
0.064,483
0.065,479
0.066,481
0.067,484
0.068,485
0.069,488
0.07,491
0.071,484
0.072,472
0.073,466
0.074,466
0.075,468
0.076,464
0.077,467
0.078,476
0.079,483
0.08,485
0.081,479
0.082,472
0.083,470
0.084,464
0.085,462
0.086,458
0.087,460
0.088,464
0.089,474
0.09,476
0.091,472
0.092,470
0.093,468
0.094,463
0.095,459
0.096,465
0.097,469
0.098,478
0.099,482
0.1,467
0.101,466
0.102,476
0.103,486
0.104,489
0.105,493
0.106,493
0.107,489
0.108,486
0.109,488
0.11,485
0.111,488
0.112,493
0.113,498
0.114,499
0.115,497
0.116,488
0.117,481
0.118,479
0.119,477
0.12,474
0.121,477
0.122,488
0.123,491
0.124,488
0.125,485
0.126,483
0.127,480
0.128,478
0.129,476
0.13,477
0.131,483
0.132,489
0.133,489
0.134,490
0.135,491
0.136,494
0.137,496
0.138,494
0.139,493
0.14,493
0.141,492
0.142,494
0.143,493
0.144,496
0.145,500
0.146,499
0.147,496
0.148,492
0.149,495
0.15,501
0.151,499
0.152,503
0.153,508
0.154,510
0.155,507
0.156,504
0.157,508
0.158,509
0.159,505
0.16,506
0.161,509
0.162,500
0.163,490
0.164,481
0.165,481
0.166,486
0.167,494
0.168,503
0.169,503
0.17,502
0.171,502
0.172,500
0.173,499
0.174,498
0.175,504
0.176,509
0.177,511
0.178,514
0.179,515
0.18,521
0.181,521
0.182,511
0.183,514
0.184,524
0.185,520
0.186,513
0.187,511
0.188,517
0.189,520
0.19,520
0.191,521
0.192,522
0.193,526
0.194,520
0.195,513
0.196,513
0.197,511
0.198,511
0.199,513
0.2,511
0.201,512
0.202,513
0.203,522
0.204,530
0.205,533
0.206,530
0.207,524
0.208,521
0.209,527
0.21,529
0.211,527
0.212,526
0.213,522
0.214,519
0.215,520
0.216,519
0.217,524
0.218,530
0.219,532
0.22,528
0.221,522
0.222,518
0.223,518
0.224,517
0.225,516
0.226,519
0.227,519
0.228,519
0.229,517
0.23,519
0.231,519
0.232,524
0.233,526
0.234,527
0.235,527
0.236,521
0.237,525
0.238,530
0.239,527
0.24,522
0.241,516
0.242,518
0.243,523
0.244,525
0.245,531
0.246,533
0.247,529
0.248,527
0.249,521
0.25,520
0.251,526
0.252,529
0.253,531
0.254,526
0.255,522
0.256,526
0.257,534
0.258,536
0.259,540
0.26,544
0.261,543
0.262,545
0.263,542
0.264,539
0.265,540
0.266,544
0.267,543
0.268,539
0.269,533
0.27,534
0.271,535
0.272,541
0.273,548
0.274,545
0.275,542
0.276,541
0.277,537
0.278,528
0.279,526
0.28,527
0.281,534
0.282,536
0.283,533
0.284,533
0.285,540
0.286,537
0.287,531
0.288,534
0.289,533
0.29,527
0.291,523
0.292,521
0.293,524
0.294,519
0.295,516
0.296,512
0.297,510
0.298,510
0.299,510
0.3,507
0.301,502
0.302,502
0.303,501
0.304,504
0.305,511
0.306,512
0.307,507
0.308,503
0.309,494
0.31,497
0.311,505
0.312,508
0.313,503
0.314,501
0.315,499
0.316,499
0.317,502
0.318,508
0.319,505
0.32,504
0.321,500
0.322,499
0.323,504
0.324,502
0.325,505
0.326,514
0.327,516
0.328,509
0.329,503
0.33,511
0.331,524
0.332,522
0.333,515
0.334,513
0.335,514
0.336,511
0.337,513
0.338,517
0.339,513
0.34,503
0.341,501
0.342,498
0.343,497
0.344,499
0.345,497
0.346,496
0.347,502
0.348,501
0.349,506
0.35,511
0.351,501
0.352,498
0.353,497
0.354,499
0.355,504
0.356,500
0.357,502
0.358,504
0.359,503
0.36,505
0.361,507
0.362,504
0.363,499
0.364,502
0.365,503
0.366,502
0.367,500
0.368,503
0.369,505
0.37,507
0.371,505
0.372,511
0.373,512
0.374,517
0.375,522
0.376,523
0.377,526
0.378,531
0.379,543
0.38,556
0.381,567
0.382,580
0.383,593
0.384,607
0.385,624
0.386,641
0.387,655
0.388,673
0.389,684
0.39,700
0.391,718
0.392,732
0.393,738
0.394,741
0.395,755
0.396,769
0.397,788
0.398,798
0.399,794
0.4,786
0.401,775
0.402,764
0.403,752
0.404,737
0.405,716
0.406,681
0.407,638
0.408,580
0.409,527
0.41,475
0.411,425
0.412,381
0.413,339
0.414,305
0.415,283
0.416,276
0.417,271
0.418,268
0.419,261
0.42,264
0.421,270
0.422,274
0.423,273
0.424,274
0.425,278
0.426,281
0.427,287
0.428,296
0.429,303
0.43,312
0.431,323
0.432,335
0.433,348
0.434,361
0.435,375
0.436,393
0.437,404
0.438,417
0.439,431
0.44,441
0.441,448
0.442,462
0.443,476
0.444,481
0.445,485
0.446,490
0.447,497
0.448,503
0.449,508
0.45,507
0.451,504
0.452,503
0.453,502
0.454,506
0.455,511
0.456,520
0.457,522
0.458,517
0.459,507
0.46,511
0.461,513
0.462,507
0.463,502
0.464,497
0.465,496
0.466,496
0.467,498
0.468,500
0.469,504
0.47,507
0.471,504
0.472,510
0.473,516
0.474,512
0.475,508
0.476,501
0.477,504
0.478,508
0.479,519
0.48,525
0.481,524
0.482,519
0.483,518
0.484,522
0.485,524
0.486,523
0.487,524
0.488,519
0.489,507
0.49,503
0.491,513
0.492,522
0.493,524
0.494,521
0.495,515
0.496,512
0.497,505
0.498,509
0.499,520
0.5,524
0.501,524
0.502,518
0.503,515
0.504,510
0.505,510
0.506,510
0.507,507
0.508,512
0.509,514
0.51,511
0.511,504
0.512,504
0.513,508
0.514,510
0.515,512
0.516,509
0.517,510
0.518,515
0.519,518
0.52,515
0.521,513
0.522,510
0.523,511
0.524,518
0.525,518
0.526,522
0.527,526
0.528,531
0.529,533
0.53,528
0.531,525
0.532,517
0.533,512
0.534,518
0.535,524
0.536,519
0.537,512
0.538,513
0.539,522
0.54,528
0.541,531
0.542,532
0.543,529
0.544,525
0.545,522
0.546,518
0.547,518
0.548,516
0.549,511
0.55,511
0.551,516
0.552,516
0.553,511
0.554,513
0.555,521
0.556,526
0.557,528
0.558,537
0.559,535
0.56,528
0.561,524
0.562,520
0.563,529
0.564,542
0.565,543
0.566,544
0.567,549
0.568,547
0.569,542
0.57,542
0.571,543
0.572,536
0.573,530
0.574,538
0.575,540
0.576,535
0.577,529
0.578,524
0.579,521
0.58,516
0.581,515
0.582,519
0.583,521
0.584,526
0.585,531
0.586,529
0.587,534
0.588,542
0.589,547
0.59,542
0.591,546
0.592,561
0.593,562
0.594,548
0.595,543
0.596,548
0.597,548
0.598,540
0.599,531
0.6,536
0.601,536
0.602,537
0.603,532
0.604,536
0.605,541
0.606,540
0.607,546
0.608,552
0.609,558
0.61,561
0.611,558
0.612,561
0.613,566
0.614,562
0.615,557
0.616,557
0.617,560
0.618,556
0.619,552
0.62,556
0.621,560
0.622,560
0.623,555
0.624,548
0.625,550
0.626,550
0.627,544
0.628,541
0.629,540
0.63,536
0.631,538
0.632,543
0.633,552
0.634,561
0.635,560
0.636,554
0.637,551
0.638,550
0.639,541
0.64,535
0.641,530
0.642,527
0.643,523
0.644,525
0.645,527
0.646,518
0.647,505
0.648,498
0.649,494
0.65,499
0.651,498
0.652,494
0.653,496
0.654,503
0.655,507
0.656,511
0.657,511
0.658,504
0.659,492
0.66,491
0.661,487
0.662,484
0.663,483
0.664,481
0.665,480
0.666,476
0.667,475
0.668,472
0.669,470
0.67,474
0.671,471
0.672,473
0.673,477
0.674,477
0.675,467
0.676,461
0.677,455
0.678,463
0.679,472
0.68,477
0.681,475
0.682,471
0.683,467
0.684,467
0.685,466
0.686,469
0.687,468
0.688,464
0.689,461
0.69,456
0.691,459
0.692,457
0.693,452
0.694,447
0.695,446
0.696,452
0.697,452
0.698,452
0.699,452
0.7,451
0.701,449
0.702,451
0.703,452
0.704,456
0.705,462
0.706,458
0.707,456
0.708,455
0.709,456
0.71,462
0.711,470
0.712,468
0.713,463
0.714,454
0.715,454
0.716,455
0.717,462
0.718,467
0.719,471
0.72,471
0.721,476
0.722,478
0.723,469
0.724,463
0.725,461
0.726,458
0.727,454
0.728,457
0.729,455
0.73,459
0.731,460
0.732,464
0.733,465
0.734,461
0.735,461
0.736,460
0.737,467
0.738,471
0.739,464
0.74,456
0.741,448
0.742,451
0.743,456
0.744,459
0.745,459
0.746,464
0.747,467
0.748,465
0.749,473
0.75,481
0.751,483
0.752,481
0.753,481
0.754,481
0.755,479
0.756,476
0.757,468
0.758,469
0.759,473
0.76,471
0.761,467
0.762,469
0.763,472
0.764,472
0.765,467
0.766,470
0.767,472
0.768,473
0.769,478
0.77,483
0.771,483
0.772,479
0.773,481
0.774,479
0.775,478
0.776,483
0.777,488
0.778,491
0.779,491
0.78,485
0.781,484
0.782,486
0.783,485
0.784,484
0.785,484
0.786,483
0.787,484
0.788,485
0.789,481
0.79,489
0.791,494
0.792,497
0.793,491
0.794,488
0.795,492
0.796,490
0.797,485
0.798,483
0.799,489
0.8,495
0.801,503
0.802,504
0.803,499
0.804,491
0.805,489
0.806,484
0.807,481
0.808,483
0.809,484
0.81,473
0.811,467
0.812,473
0.813,484
0.814,494
0.815,499
0.816,500
0.817,493
0.818,483
0.819,475
0.82,476
0.821,484
0.822,491
0.823,495
0.824,497
0.825,498
0.826,501
0.827,499
0.828,499
0.829,494
0.83,481
0.831,470
0.832,471
0.833,481
0.834,490
0.835,495
0.836,493
0.837,489
0.838,484
0.839,486
0.84,494
0.841,495
0.842,492
0.843,491
0.844,490
0.845,493
0.846,492
0.847,494
0.848,492
0.849,489
0.85,492
0.851,495
0.852,496
0.853,497
0.854,502
0.855,499
0.856,496
0.857,492
0.858,489
0.859,492
0.86,493
0.861,496
0.862,497
0.863,495
0.864,494
0.865,491
0.866,488
0.867,491
0.868,496
0.869,508
0.87,515
0.871,508
0.872,502
0.873,493
0.874,492
0.875,499
0.876,498
0.877,497
0.878,496
0.879,489
0.88,485
0.881,480
0.882,480
0.883,483
0.884,484
0.885,483
0.886,493
0.887,505
0.888,505
0.889,497
0.89,492
0.891,493
0.892,500
0.893,505
0.894,507
0.895,518
0.896,516
0.897,510
0.898,508
0.899,505
0.9,503
0.901,504
0.902,506
0.903,511
0.904,517
0.905,520
0.906,516
0.907,515
0.908,510
0.909,508
0.91,514
0.911,520
0.912,523
0.913,520
0.914,514
0.915,517
0.916,523
0.917,522
0.918,514
0.919,509
0.92,505
0.921,505
0.922,506
0.923,503
0.924,502
0.925,499
0.926,499
0.927,507
0.928,509
0.929,508
0.93,504
0.931,492
0.932,481
0.933,470
0.934,472
0.935,487
0.936,492
0.937,492
0.938,491
0.939,495
0.94,502
0.941,502
0.942,504
0.943,499
0.944,492
0.945,491
0.946,494
0.947,496
0.948,500
0.949,500
0.95,497
0.951,496
0.952,496
0.953,497
0.954,499
0.955,507
0.956,514
0.957,519
0.958,518
0.959,514
0.96,517
0.961,519
0.962,526
0.963,528
0.964,529
0.965,528
0.966,527
0.967,522
0.968,518
0.969,514
0.97,520
0.971,527
0.972,529
0.973,526
0.974,524
0.975,529
0.976,535
0.977,537
0.978,536
0.979,530
0.98,527
0.981,531
0.982,532
0.983,528
0.984,526
0.985,526
0.986,522
0.987,522
0.988,528
0.989,537
0.99,550
0.991,546
0.992,535
0.993,530
0.994,530
0.995,534
0.996,528
0.997,530
0.998,532
0.999,531
1.0,534
1.001,542
1.002,544
1.003,542
1.004,542
1.005,541
1.006,540
1.007,539
1.008,549
1.009,551
1.01,545
1.011,548
1.012,553
1.013,557
1.014,568
1.015,589
1.016,606
1.017,618
1.018,625
1.019,636
1.02,647
1.021,659
1.022,676
1.023,702
1.024,724
1.025,745
1.026,764
1.027,775
1.028,782
1.029,783
1.03,783
1.031,796
1.032,814
1.033,823
1.034,832
1.035,831
1.036,821
1.037,818
1.038,816
1.039,800
1.04,776
1.041,749
1.042,718
1.043,680
1.044,620
1.045,558
1.046,510
1.047,466
1.048,417
1.049,375
1.05,350
1.051,332
1.052,320
1.053,311
1.054,300
1.055,295
1.056,294
1.057,296
1.058,301
1.059,304
1.06,307
1.061,303
1.062,302
1.063,304
1.064,316
1.065,329
1.066,345
1.067,360
1.068,369
1.069,376
1.07,388
1.071,398
1.072,412
1.073,429
1.074,441
1.075,445
1.076,450
1.077,462
1.078,476
1.079,485
1.08,496
1.081,502
1.082,508
1.083,515
1.084,521
1.085,524
1.086,528
1.087,530
1.088,527
1.089,526
1.09,525
1.091,528
1.092,536
1.093,536
1.094,527
1.095,523
1.096,523
1.097,516
1.098,518
1.099,527
1.1,536
1.101,534
1.102,539
1.103,539
1.104,535
1.105,536
1.106,538
1.107,532
1.108,530
1.109,531
1.11,527
1.111,519
1.112,523
1.113,528
1.114,531
1.115,530
1.116,520
1.117,513
1.118,518
1.119,521
1.12,527
1.121,528
1.122,528
1.123,526
1.124,524
1.125,523
1.126,519
1.127,520
1.128,524
1.129,524
1.13,527
1.131,530
1.132,532
1.133,533
1.134,533
1.135,527
1.136,525
1.137,529
1.138,529
1.139,529
1.14,529
1.141,529
1.142,529
1.143,528
1.144,527
1.145,531
1.146,534
1.147,536
1.148,537
1.149,537
1.15,536
1.151,536
1.152,530
1.153,525
1.154,524
1.155,524
1.156,526
1.157,525
1.158,519
1.159,518
1.16,521
1.161,529
1.162,535
1.163,532
1.164,528
1.165,527
1.166,534
1.167,536
1.168,537
1.169,537
1.17,532
1.171,528
1.172,526
1.173,526
1.174,527
1.175,525
1.176,524
1.177,527
1.178,525
1.179,527
1.18,535
1.181,541
1.182,547
1.183,554
1.184,536
1.185,520
1.186,522
1.187,522
1.188,518
1.189,519
1.19,529
1.191,542
1.192,544
1.193,540
1.194,535
1.195,532
1.196,533
1.197,530
1.198,526
1.199,526
1.2,530
1.201,533
1.202,534
1.203,532
1.204,531
1.205,532
1.206,533
1.207,537
1.208,540
1.209,540
1.21,538
1.211,539
1.212,540
1.213,543
1.214,548
1.215,547
1.216,548
1.217,545
1.218,537
1.219,537
1.22,539
1.221,536
1.222,533
1.223,529
1.224,532
1.225,537
1.226,544
1.227,546
1.228,542
1.229,540
1.23,542
1.231,544
1.232,544
1.233,547
1.234,548
1.235,547
1.236,549
1.237,553
1.238,555
1.239,556
1.24,556
1.241,554
1.242,554
1.243,553
1.244,555
1.245,557
1.246,556
1.247,551
1.248,548
1.249,550
1.25,550
1.251,550
1.252,553
1.253,552
1.254,549
1.255,547
1.256,550
1.257,552
1.258,550
1.259,547
1.26,550
1.261,549
1.262,549
1.263,549
1.264,544
1.265,543
1.266,544
1.267,546
1.268,545
1.269,541
1.27,538
1.271,532
1.272,536
1.273,540
1.274,542
1.275,544
1.276,546
1.277,544
1.278,541
1.279,540
1.28,543
1.281,546
1.282,541
1.283,527
1.284,531
1.285,539
1.286,536
1.287,531
1.288,532
1.289,535
1.29,529
1.291,512
1.292,497
1.293,484
1.294,482
1.295,488
1.296,492
1.297,489
1.298,481
1.299,482
1.3,480
1.301,481
1.302,482
1.303,484
1.304,484
1.305,491
1.306,496
1.307,496
1.308,495
1.309,498
1.31,502
1.311,496
1.312,482
1.313,475
1.314,468
1.315,464
1.316,466
1.317,467
1.318,469
1.319,477
1.32,478
1.321,480
1.322,479
1.323,481
1.324,479
1.325,477
1.326,475
1.327,474
1.328,471
1.329,475
1.33,482
1.331,479
1.332,475
1.333,474
1.334,478
1.335,489
1.336,496
1.337,492
1.338,492
1.339,493
1.34,487
1.341,477
1.342,467
1.343,472
1.344,475
1.345,478
1.346,483
1.347,483
1.348,478
1.349,483
1.35,486
1.351,486
1.352,478
1.353,472
1.354,475
1.355,479
1.356,479
1.357,484
1.358,492
1.359,492
1.36,486
1.361,489
1.362,496
1.363,498
1.364,501
1.365,508
1.366,506
1.367,494
1.368,482
1.369,465
1.37,457
1.371,455
1.372,470
1.373,483
1.374,489
1.375,494
1.376,494
1.377,488
1.378,485
1.379,487
1.38,497
1.381,497
1.382,499
1.383,506
1.384,508
1.385,505
1.386,510
1.387,519
1.388,527
1.389,523
1.39,518
1.391,505
1.392,495
1.393,489
1.394,490
1.395,483
1.396,482
1.397,483
1.398,482
1.399,479
1.4,475
1.401,475
1.402,480
1.403,485
1.404,486
1.405,491
1.406,497
1.407,502
1.408,505
1.409,505
1.41,507
1.411,500
1.412,492
1.413,488
1.414,475
1.415,467
1.416,471
1.417,473
1.418,481
1.419,495
1.42,504
1.421,509
1.422,517
1.423,522
1.424,510
1.425,494
1.426,491
1.427,488
1.428,494
1.429,505
1.43,508
1.431,503
1.432,497
1.433,495
1.434,492
1.435,487
1.436,485
1.437,492
1.438,499
1.439,498
1.44,496
1.441,492
1.442,491
1.443,489
1.444,487
1.445,484
1.446,479
1.447,482
1.448,489
1.449,496
1.45,501
1.451,506
1.452,510
1.453,505
1.454,502
1.455,503
1.456,500
1.457,502
1.458,500
1.459,496
1.46,495
1.461,494
1.462,492
1.463,495
1.464,495
1.465,495
1.466,499
1.467,508
1.468,511
1.469,498
1.47,483
1.471,478
1.472,481
1.473,483
1.474,482
1.475,480
1.476,479
1.477,484
1.478,496
1.479,506
1.48,507
1.481,500
1.482,495
1.483,504
1.484,511
1.485,512
1.486,512
1.487,508
1.488,504
1.489,497
1.49,496
1.491,493
1.492,493
1.493,493
1.494,484
1.495,480
1.496,479
1.497,478
1.498,476
1.499,486
1.5,499
1.501,502
1.502,504
1.503,510
1.504,512
1.505,517
1.506,515
1.507,510
1.508,504
1.509,497
1.51,491
1.511,488
1.512,487
1.513,484
1.514,480
1.515,472
1.516,472
1.517,478
1.518,481
1.519,481
1.52,482
1.521,477
1.522,472
1.523,478
1.524,489
1.525,497
1.526,499
1.527,496
1.528,496
1.529,498
1.53,499
1.531,497
1.532,492
1.533,487
1.534,487
1.535,495
1.536,505
1.537,509
1.538,510
1.539,509
1.54,512
1.541,519
1.542,527
1.543,535
1.544,538
1.545,540
1.546,546
1.547,545
1.548,531
1.549,516
1.55,512
1.551,512
1.552,510
1.553,511
1.554,513
1.555,510
1.556,501
1.557,490
1.558,489
1.559,491
1.56,491
1.561,495
1.562,498
1.563,489
1.564,486
1.565,490
1.566,493
1.567,496
1.568,495
1.569,488
1.57,485
1.571,486
1.572,487
1.573,484
1.574,474
1.575,469
1.576,480
1.577,487
1.578,485
1.579,480
1.58,472
1.581,467
1.582,467
1.583,467
1.584,469
1.585,470
1.586,472
1.587,470
1.588,473
1.589,477
1.59,483
1.591,487
1.592,486
1.593,487
1.594,481
1.595,473
1.596,470
1.597,467
1.598,470
1.599,471
1.6,471
1.601,466
1.602,465
1.603,465
1.604,465
1.605,470
1.606,466
1.607,464
1.608,472
1.609,473
1.61,471
1.611,470
1.612,472
1.613,480
1.614,483
1.615,478
1.616,479
1.617,476
1.618,479
1.619,481
1.62,481
1.621,479
1.622,475
1.623,472
1.624,472
1.625,477
1.626,480
1.627,481
1.628,486
1.629,488
1.63,489
1.631,485
1.632,476
1.633,470
1.634,468
1.635,466
1.636,469
1.637,472
1.638,472
1.639,465
1.64,457
1.641,459
1.642,468
1.643,472
1.644,476
1.645,479
1.646,478
1.647,475
1.648,478
1.649,483
1.65,486
1.651,493
1.652,499
1.653,508
1.654,526
1.655,546
1.656,556
1.657,566
1.658,579
1.659,591
1.66,607
1.661,624
1.662,639
1.663,662
1.664,679
1.665,696
1.666,711
1.667,719
1.668,727
1.669,739
1.67,740
1.671,747
1.672,765
1.673,779
1.674,788
1.675,788
1.676,779
1.677,765
1.678,746
1.679,729
1.68,705
1.681,668
1.682,627
1.683,572
1.684,518
1.685,473
1.686,427
1.687,379
1.688,343
1.689,312
1.69,288
1.691,269
1.692,252
1.693,243
1.694,233
1.695,232
1.696,240
1.697,249
1.698,254
1.699,258
1.7,265
1.701,270
1.702,264
1.703,265
1.704,275
1.705,284
1.706,287
1.707,300
1.708,323
1.709,348
1.71,361
1.711,370
1.712,378
1.713,387
1.714,396
1.715,407
1.716,416
1.717,431
1.718,442
1.719,446
1.72,446
1.721,443
1.722,448
1.723,456
1.724,462
1.725,464
1.726,463
1.727,464
1.728,469
1.729,471
1.73,472
1.731,473
1.732,473
1.733,476
1.734,475
1.735,465
1.736,461
1.737,467
1.738,478
1.739,491
1.74,494
1.741,484
1.742,472
1.743,476
1.744,482
1.745,480
1.746,474
1.747,475
1.748,481
1.749,482
1.75,482
1.751,483
1.752,485
1.753,484
1.754,481
1.755,479
1.756,480
1.757,482
1.758,485
1.759,487
1.76,485
1.761,481
1.762,483
1.763,491
1.764,496
1.765,494
1.766,486
1.767,483
1.768,484
1.769,491
1.77,497
1.771,499
1.772,508
1.773,511
1.774,510
1.775,507
1.776,504
1.777,499
1.778,493
1.779,489
1.78,494
1.781,500
1.782,497
1.783,495
1.784,488
1.785,479
1.786,482
1.787,495
1.788,504
1.789,505
1.79,509
1.791,510
1.792,509
1.793,502
1.794,500
1.795,495
1.796,487
1.797,483
1.798,483
1.799,485
1.8,487
1.801,488
1.802,488
1.803,484
1.804,481
1.805,480
1.806,487
1.807,489
1.808,482
1.809,476
1.81,474
1.811,476
1.812,479
1.813,484
1.814,479
1.815,481
1.816,486
1.817,484
1.818,487
1.819,488
1.82,487
1.821,488
1.822,491
1.823,488
1.824,480
1.825,475
1.826,474
1.827,476
1.828,477
1.829,479
1.83,482
1.831,481
1.832,478
1.833,472
1.834,472
1.835,473
1.836,476
1.837,478
1.838,480
1.839,476
1.84,480
1.841,485
1.842,487
1.843,483
1.844,483
1.845,492
1.846,494
1.847,496
1.848,492
1.849,492
1.85,489
1.851,482
1.852,485
1.853,491
1.854,488
1.855,484
1.856,485
1.857,487
1.858,489
1.859,487
1.86,490
1.861,499
1.862,506
1.863,510
1.864,511
1.865,508
1.866,505
1.867,512
1.868,515
1.869,514
1.87,510
1.871,511
1.872,512
1.873,508
1.874,505
1.875,505
1.876,499
1.877,502
1.878,504
1.879,503
1.88,509
1.881,513
1.882,519
1.883,529
1.884,535
1.885,537
1.886,538
1.887,524
1.888,510
1.889,504
1.89,507
1.891,515
1.892,518
1.893,522
1.894,536
1.895,548
1.896,547
1.897,535
1.898,528
1.899,524
1.9,518
1.901,515
1.902,516
1.903,515
1.904,513
1.905,514
1.906,515
1.907,513
1.908,510
1.909,506
1.91,507
1.911,512
1.912,516
1.913,511
1.914,505
1.915,503
1.916,501
1.917,492
1.918,492
1.919,501
1.92,503
1.921,496
1.922,493
1.923,497
1.924,508
1.925,519
1.926,512
1.927,502
1.928,505
1.929,509
1.93,507
1.931,498
1.932,490
1.933,485
1.934,481
1.935,479
1.936,473
1.937,473
1.938,478
1.939,473
1.94,465
1.941,458
1.942,461
1.943,464
1.944,465
1.945,467
1.946,468
1.947,474
1.948,480
1.949,478
1.95,474
1.951,468
1.952,466
1.953,467
1.954,469
1.955,459
1.956,450
1.957,458
1.958,491
1.959,503
1.96,499
1.961,495
1.962,486
1.963,479
1.964,470
1.965,464
1.966,464
1.967,462
1.968,460
1.969,460
1.97,463
1.971,458
1.972,460
1.973,468
1.974,469
1.975,473
1.976,480
1.977,483
1.978,487
1.979,490
1.98,487
1.981,479
1.982,460
1.983,428
1.984,416
1.985,430
1.986,447
1.987,456
1.988,462
1.989,469
1.99,477
1.991,479
1.992,481
1.993,483
1.994,484
1.995,481
1.996,470
1.997,459
1.998,451
1.999,449
2.0,450
2.001,457
2.002,463
2.003,472
2.004,475
2.005,478
2.006,481
2.007,484
2.008,481
2.009,477
2.01,479
2.011,481
2.012,482
2.013,483
2.014,487
2.015,493
2.016,493
2.017,486
2.018,466
2.019,457
2.02,462
2.021,466
2.022,470
2.023,468
2.024,466
2.025,464
2.026,460
2.027,454
2.028,453
2.029,462
2.03,472
2.031,478
2.032,480
2.033,476
2.034,483
2.035,503
2.036,517
2.037,536
2.038,553
2.039,545
2.04,515
2.041,484
2.042,471
2.043,459
2.044,460
2.045,460
2.046,450
2.047,451
2.048,461
2.049,467
2.05,469
2.051,470
2.052,472
2.053,473
2.054,467
2.055,465
2.056,469
2.057,478
2.058,479
2.059,480
2.06,476
2.061,470
2.062,467
2.063,476
2.064,480
2.065,482
2.066,483
2.067,485
2.068,487
2.069,480
2.07,478
2.071,486
2.072,492
2.073,491
2.074,483
2.075,478
2.076,471
2.077,459
2.078,458
2.079,457
2.08,454
2.081,461
2.082,469
2.083,470
2.084,473
2.085,480
2.086,487
2.087,485
2.088,482
2.089,482
2.09,487
2.091,486
2.092,482
2.093,485
2.094,494
2.095,494
2.096,490
2.097,492
2.098,500
2.099,507
2.1,504
2.101,501
2.102,503
2.103,499
2.104,494
2.105,491
2.106,491
2.107,494
2.108,496
2.109,494
2.11,492
2.111,495
2.112,490
2.113,488
2.114,491
2.115,489
2.116,489
2.117,492
2.118,493
2.119,489
2.12,490
2.121,492
2.122,490
2.123,480
2.124,480
2.125,487
2.126,499
2.127,503
2.128,507
2.129,498
2.13,488
2.131,487
2.132,494
2.133,502
2.134,504
2.135,502
2.136,497
2.137,497
2.138,502
2.139,507
2.14,505
2.141,501
2.142,499
2.143,495
2.144,493
2.145,495
2.146,499
2.147,494
2.148,490
2.149,488
2.15,488
2.151,488
2.152,490
2.153,495
2.154,502
2.155,511
2.156,512
2.157,506
2.158,511
2.159,512
2.16,507
2.161,502
2.162,507
2.163,507
2.164,501
2.165,499
2.166,500
2.167,499
2.168,499
2.169,500
2.17,508
2.171,513
2.172,516
2.173,522
2.174,531
2.175,515
2.176,504
2.177,510
2.178,521
2.179,534
2.18,538
2.181,538
2.182,539
2.183,540
2.184,534
2.185,528
2.186,525
2.187,526
2.188,526
2.189,524
2.19,528
2.191,532
2.192,539
2.193,548
2.194,558
2.195,560
2.196,560
2.197,559
2.198,550
2.199,532
2.2,528
2.201,529
2.202,526
2.203,525
2.204,523
2.205,520
2.206,521
2.207,523
2.208,517
2.209,512
2.21,512
2.211,512
2.212,516
2.213,519
2.214,519
2.215,517
2.216,515
2.217,519
2.218,518
2.219,511
2.22,503
2.221,499
2.222,504
2.223,512
2.224,522
2.225,528
2.226,526
2.227,519
2.228,516
2.229,516
2.23,520
2.231,513
2.232,496
2.233,493
2.234,498
2.235,506
2.236,506
2.237,502
2.238,504
2.239,511
2.24,516
2.241,513
2.242,511
2.243,509
2.244,502
2.245,502
2.246,508
2.247,524
2.248,527
2.249,519
2.25,515
2.251,519
2.252,527
2.253,530
2.254,527
2.255,526
2.256,523
2.257,521
2.258,517
2.259,517
2.26,515
2.261,513
2.262,515
2.263,520
2.264,524
2.265,525
2.266,516
2.267,511
2.268,507
2.269,507
2.27,502
2.271,504
2.272,514
2.273,520
2.274,521
2.275,520
2.276,511
2.277,502
2.278,496
2.279,493
2.28,496
2.281,503
2.282,506
2.283,507
2.284,514
2.285,512
2.286,502
2.287,487
2.288,488
2.289,499
2.29,504
2.291,503
2.292,502
2.293,508
2.294,515
2.295,523
2.296,533
2.297,549
2.298,560
2.299,571
2.3,587
2.301,602
2.302,622
2.303,649
2.304,665
2.305,687
2.306,705
2.307,722
2.308,736
2.309,745
2.31,759
2.311,777
2.312,799
2.313,812
2.314,823
2.315,830
2.316,835
2.317,838
2.318,835
2.319,830
2.32,818
2.321,797
2.322,769
2.323,747
2.324,713
2.325,665
2.326,606
2.327,548
2.328,499
2.329,453
2.33,406
2.331,368
2.332,339
2.333,310
2.334,288
2.335,274
2.336,265
2.337,261
2.338,261
2.339,263
2.34,267
2.341,272
2.342,273
2.343,276
2.344,280
2.345,285
2.346,292
2.347,306
2.348,315
2.349,329
2.35,349
2.351,364
2.352,375
2.353,386
2.354,392
2.355,398
2.356,411
2.357,427
2.358,431
2.359,434
2.36,436
2.361,436
2.362,427
2.363,426
2.364,443
2.365,459
2.366,477
2.367,499
2.368,517
2.369,522
2.37,514
2.371,506
2.372,502
2.373,505
2.374,501
2.375,499
2.376,500
2.377,497
2.378,497
2.379,494
2.38,499
2.381,502
2.382,506
2.383,507
2.384,501
2.385,497
2.386,497
2.387,502
2.388,507
2.389,505
2.39,505
2.391,504
2.392,498
2.393,498
2.394,496
2.395,498
2.396,502
2.397,505
2.398,507
2.399,505
2.4,502
2.401,497
2.402,492
2.403,484
2.404,482
2.405,486
2.406,489
2.407,487
2.408,487
2.409,487
2.41,489
2.411,488
2.412,493
2.413,495
2.414,487
2.415,482
2.416,485
2.417,488
2.418,489
2.419,487
2.42,491
2.421,491
2.422,490
2.423,491
2.424,494
2.425,491
2.426,491
2.427,497
2.428,501
2.429,502
2.43,489
2.431,473
2.432,478
2.433,477
2.434,468
2.435,475
2.436,480
2.437,478
2.438,484
2.439,493
2.44,503
2.441,505
2.442,496
2.443,477
2.444,466
2.445,470
2.446,482
2.447,488
2.448,477
2.449,473
2.45,480
2.451,485
2.452,490
2.453,497
2.454,494
2.455,483
2.456,471
2.457,473
2.458,475
2.459,467
2.46,475
2.461,485
2.462,492
2.463,493
2.464,494
2.465,498
2.466,498
2.467,504
2.468,510
2.469,499
2.47,493
2.471,487
2.472,483
2.473,482
2.474,482
2.475,484
2.476,489
2.477,487
2.478,479
2.479,478
2.48,483
2.481,496
2.482,504
2.483,503
2.484,503
2.485,504
2.486,507
2.487,509
2.488,506
2.489,503
2.49,503
2.491,500
2.492,495
2.493,494
2.494,495
2.495,501
2.496,512
2.497,518
2.498,524
2.499,520
2.5,508
2.501,498
2.502,497
2.503,498
2.504,504
2.505,510
2.506,514
2.507,517
2.508,518
2.509,519
2.51,522
2.511,522
2.512,519
2.513,526
2.514,532
2.515,535
2.516,534
2.517,528
2.518,524
2.519,534
2.52,537
2.521,533
2.522,533
2.523,530
2.524,525
2.525,531
2.526,530
2.527,523
2.528,523
2.529,527
2.53,529
2.531,528
2.532,527
2.533,519
2.534,514
2.535,512
2.536,509
2.537,508
2.538,509
2.539,514
2.54,524
2.541,525
2.542,521
2.543,516
2.544,523
2.545,524
2.546,524
2.547,526
2.548,524
2.549,522
2.55,516
2.551,511
2.552,507
2.553,506
2.554,505
2.555,495
2.556,489
2.557,482
2.558,482
2.559,483
2.56,484
2.561,483
2.562,496
2.563,496
2.564,492
2.565,489
2.566,489
2.567,489
2.568,487
2.569,480
2.57,479
2.571,478
2.572,479
2.573,479
2.574,475
2.575,475
2.576,478
2.577,482
2.578,476
2.579,467
2.58,456
2.581,446
2.582,443
2.583,442
2.584,444
2.585,449
2.586,457
2.587,463
2.588,464
2.589,465
2.59,465
2.591,467
2.592,468
2.593,469
2.594,465
2.595,461
2.596,456
2.597,457
2.598,464
2.599,469
2.6,472
2.601,468
2.602,464
2.603,456
2.604,451
2.605,447
2.606,448
2.607,448
2.608,450
2.609,452
2.61,453
2.611,449
2.612,440
2.613,440
2.614,450
2.615,455
2.616,455
2.617,451
2.618,447
2.619,449
2.62,448
2.621,442
2.622,447
2.623,462
2.624,467
2.625,475
2.626,480
2.627,486
2.628,484
2.629,486
2.63,491
2.631,487
2.632,487
2.633,480
2.634,470
2.635,471
2.636,479
2.637,488
2.638,490
2.639,490
2.64,487
2.641,480
2.642,477
2.643,481
2.644,487
2.645,495
2.646,501
2.647,502
2.648,498
2.649,497
2.65,497
2.651,495
2.652,500
2.653,508
2.654,512
2.655,514
2.656,516
2.657,514
2.658,514
2.659,516
2.66,516
2.661,512
2.662,509
2.663,508
2.664,512
2.665,511
2.666,514
2.667,507
2.668,498
2.669,498
2.67,502
2.671,512
2.672,512
2.673,511
2.674,517
2.675,518
2.676,527
2.677,543
2.678,548
2.679,548
2.68,542
2.681,526
2.682,506
2.683,509
2.684,520
2.685,526
2.686,525
2.687,525
2.688,524
2.689,522
2.69,518
2.691,519
2.692,519
2.693,513
2.694,508
2.695,509
2.696,515
2.697,524
2.698,527
2.699,525
2.7,519
2.701,517
2.702,526
2.703,532
2.704,531
2.705,532
2.706,534
2.707,531
2.708,526
2.709,524
2.71,524
2.711,527
2.712,531
2.713,536
2.714,543
2.715,542
2.716,538
2.717,535
2.718,532
2.719,531
2.72,532
2.721,529
2.722,532
2.723,546
2.724,554
2.725,562
2.726,574
2.727,579
2.728,579
2.729,574
2.73,574
2.731,573
2.732,566
2.733,559
2.734,553
2.735,554
2.736,553
2.737,563
2.738,572
2.739,570
2.74,566
2.741,561
2.742,552
2.743,547
2.744,558
2.745,571
2.746,583
2.747,592
2.748,593
2.749,592
2.75,588
2.751,583
2.752,583
2.753,583
2.754,577
2.755,568
2.756,564
2.757,577
2.758,591
2.759,596
2.76,596
2.761,592
2.762,593
2.763,593
2.764,586
2.765,586
2.766,600
2.767,602
2.768,592
2.769,589
2.77,585
2.771,579
2.772,580
2.773,579
2.774,577
2.775,576
2.776,577
2.777,575
2.778,571
2.779,570
2.78,567
2.781,567
2.782,566
2.783,568
2.784,572
2.785,581
2.786,589
2.787,588
2.788,584
2.789,583
2.79,583
2.791,585
2.792,582
2.793,588
2.794,599
2.795,602
2.796,601
2.797,606
2.798,610
2.799,609
2.8,604
2.801,597
2.802,596
2.803,598
2.804,595
2.805,602
2.806,605
2.807,603
2.808,598
2.809,596
2.81,595
2.811,593
2.812,589
2.813,583
2.814,583
2.815,582
2.816,584
2.817,585
2.818,584
2.819,581
2.82,577
2.821,576
2.822,579
2.823,579
2.824,577
2.825,572
2.826,568
2.827,568
2.828,563
2.829,558
2.83,553
2.831,547
2.832,542
2.833,548
2.834,556
2.835,560
2.836,561
2.837,559
2.838,559
2.839,557
2.84,547
2.841,540
2.842,536
2.843,539
2.844,542
2.845,539
2.846,536
2.847,537
2.848,544
2.849,550
2.85,556
2.851,558
2.852,558
2.853,558
2.854,558
2.855,557
2.856,553
2.857,556
2.858,559
2.859,555
2.86,554
2.861,557
2.862,552
2.863,548
2.864,550
2.865,540
2.866,534
2.867,536
2.868,543
2.869,550
2.87,555
2.871,555
2.872,552
2.873,553
2.874,548
2.875,548
2.876,550
2.877,551
2.878,551
2.879,549
2.88,553
2.881,558
2.882,553
2.883,547
2.884,547
2.885,542
2.886,540
2.887,537
2.888,534
2.889,537
2.89,542
2.891,538
2.892,536
2.893,537
2.894,541
2.895,543
2.896,542
2.897,543
2.898,547
2.899,553
2.9,554
2.901,553
2.902,553
2.903,554
2.904,555
2.905,557
2.906,555
2.907,545
2.908,535
2.909,530
2.91,531
2.911,537
2.912,551
2.913,574
2.914,592
2.915,609
2.916,624
2.917,636
2.918,647
2.919,662
2.92,679
2.921,695
2.922,715
2.923,737
2.924,757
2.925,778
2.926,790
2.927,797
2.928,804
2.929,816
2.93,830
2.931,838
2.932,844
2.933,848
2.934,845
2.935,842
2.936,833
2.937,814
2.938,793
2.939,769
2.94,737
2.941,702
2.942,655
2.943,596
2.944,541
2.945,498
2.946,455
2.947,415
2.948,380
2.949,354
2.95,326
2.951,298
2.952,283
2.953,283
2.954,281
2.955,277
2.956,280
2.957,287
2.958,291
2.959,292
2.96,292
2.961,292
2.962,303
2.963,319
2.964,331
2.965,340
2.966,357
2.967,377
2.968,394
2.969,408
2.97,421
2.971,429
2.972,433
2.973,434
2.974,444
2.975,458
2.976,469
2.977,480
2.978,487
2.979,493
2.98,496
2.981,499
2.982,509
2.983,518
2.984,525
2.985,531
2.986,534
2.987,537
2.988,544
2.989,544
2.99,538
2.991,537
2.992,536
2.993,529
2.994,527
2.995,531
2.996,533
2.997,535
2.998,531
2.999,531
3.0,529
3.001,526
3.002,526
3.003,535
3.004,536
3.005,537
3.006,535
3.007,531
3.008,530
3.009,536
3.01,545
3.011,555
3.012,558
3.013,548
3.014,539
3.015,529
3.016,524
3.017,522
3.018,522
3.019,521
3.02,520
3.021,523
3.022,528
3.023,534
3.024,531
3.025,526
3.026,526
3.027,527
3.028,531
3.029,537
3.03,538
3.031,544
3.032,544
3.033,548
3.034,551
3.035,545
3.036,531
3.037,518
3.038,512
3.039,515
3.04,514
3.041,517
3.042,523
3.043,524
3.044,516
3.045,513
3.046,514
3.047,513
3.048,511
3.049,512
3.05,511
3.051,511
3.052,513
3.053,512
3.054,511
3.055,517
3.056,523
3.057,523
3.058,519
3.059,514
3.06,515
3.061,523
3.062,521
3.063,519
3.064,517
3.065,516
3.066,517
3.067,524
3.068,528
3.069,525
3.07,517
3.071,516
3.072,521
3.073,526
3.074,526
3.075,527
3.076,520
3.077,518
3.078,520
3.079,519
3.08,513
3.081,508
3.082,501
3.083,504
3.084,505
3.085,509
3.086,510
3.087,509
3.088,512
3.089,526
3.09,536
3.091,531
3.092,526
3.093,528
3.094,527
3.095,530
3.096,523
3.097,523
3.098,529
3.099,534
3.1,534
3.101,533
3.102,535
3.103,534
3.104,532
3.105,530
3.106,525
3.107,521
3.108,517
3.109,513
3.11,510
3.111,511
3.112,516
3.113,519
3.114,519
3.115,520
3.116,521
3.117,524
3.118,531
3.119,534
3.12,535
3.121,532
3.122,528
3.123,527
3.124,530
3.125,537
3.126,532
3.127,530
3.128,532
3.129,537
3.13,536
3.131,537
3.132,540
3.133,545
3.134,548
3.135,537
3.136,542
3.137,553
3.138,557
3.139,560
3.14,557
3.141,553
3.142,551
3.143,544
3.144,537
3.145,534
3.146,535
3.147,539
3.148,548
3.149,556
3.15,560
3.151,560
3.152,555
3.153,546
3.154,542
3.155,539
3.156,532
3.157,533
3.158,536
3.159,542
3.16,546
3.161,539
3.162,535
3.163,529
3.164,527
3.165,526
3.166,520
3.167,517
3.168,515
3.169,514
3.17,512
3.171,512
3.172,512
3.173,512
3.174,515
3.175,518
3.176,521
3.177,516
3.178,510
3.179,497
3.18,488
3.181,485
3.182,491
3.183,500
3.184,503
3.185,503
3.186,499
3.187,490
3.188,483
3.189,480
3.19,476
3.191,472
3.192,482
3.193,490
3.194,489
3.195,482
3.196,472
3.197,467
3.198,470
3.199,468
3.2,463
3.201,460
3.202,460
3.203,461
3.204,462
3.205,463
3.206,464
3.207,463
3.208,461
3.209,457
3.21,456
3.211,454
3.212,444
3.213,432
3.214,434
3.215,441
3.216,448
3.217,451
3.218,449
3.219,454
3.22,457
3.221,454
3.222,450
3.223,436
3.224,428
3.225,434
3.226,449
3.227,455
3.228,451
3.229,447
3.23,453
3.231,450
3.232,446
3.233,444
3.234,443
3.235,439
3.236,439
3.237,441
3.238,443
3.239,441
3.24,446
3.241,448
3.242,451
3.243,455
3.244,458
3.245,456
3.246,456
3.247,460
3.248,463
3.249,457
3.25,450
3.251,445
3.252,447
3.253,444
3.254,436
3.255,431
3.256,435
3.257,441
3.258,444
3.259,445
3.26,438
3.261,433
3.262,435
3.263,439
3.264,446
3.265,448
3.266,448
3.267,450
3.268,454
3.269,455
3.27,457
3.271,459
3.272,460
3.273,462
3.274,458
3.275,459
3.276,460
3.277,466
3.278,467
3.279,467
3.28,466
3.281,463
3.282,458
3.283,457
3.284,458
3.285,455
3.286,458
3.287,463
3.288,464
3.289,468
3.29,470
3.291,471
3.292,475
3.293,479
3.294,477
3.295,476
3.296,484
3.297,488
3.298,488
3.299,486
3.3,482
3.301,479
3.302,477
3.303,473
3.304,472
3.305,482
3.306,484
3.307,478
3.308,477
3.309,488
3.31,503
3.311,511
3.312,502
3.313,495
3.314,484
3.315,481
3.316,479
3.317,465
3.318,454
3.319,459
3.32,467
3.321,468
3.322,472
3.323,475
3.324,479
3.325,480
3.326,479
3.327,482
3.328,488
3.329,489
3.33,482
3.331,482
3.332,485
3.333,486
3.334,491
3.335,502
3.336,508
3.337,507
3.338,499
3.339,485
3.34,482
3.341,487
3.342,496
3.343,493
3.344,489
3.345,487
3.346,489
3.347,492
3.348,495
3.349,497
3.35,489
3.351,475
3.352,475
3.353,485
3.354,489
3.355,496
3.356,495
3.357,487
3.358,479
3.359,483
3.36,493
3.361,494
3.362,492
3.363,494
3.364,491
3.365,491
3.366,490
3.367,491
3.368,492
3.369,491
3.37,489
3.371,494
3.372,498
3.373,501
3.374,503
3.375,501
3.376,501
3.377,495
3.378,489
3.379,496
3.38,507
3.381,510
3.382,512
3.383,505
3.384,501
3.385,503
3.386,515
3.387,524
3.388,524
3.389,519
3.39,515
3.391,512
3.392,510
3.393,505
3.394,505
3.395,504
3.396,503
3.397,495
3.398,491
3.399,501
3.4,511
3.401,516
3.402,513
3.403,506
3.404,502
3.405,512
3.406,519
3.407,522
3.408,516
3.409,509
3.41,507
3.411,501
3.412,498
3.413,505
3.414,508
3.415,508
3.416,508
3.417,504
3.418,503
3.419,503
3.42,506
3.421,513
3.422,515
3.423,507
3.424,508
3.425,516
3.426,517
3.427,515
3.428,514
3.429,521
3.43,527
3.431,527
3.432,523
3.433,525
3.434,526
3.435,529
3.436,531
3.437,536
3.438,539
3.439,536
3.44,529
3.441,524
3.442,519
3.443,516
3.444,516
3.445,516
3.446,513
3.447,515
3.448,518
3.449,521
3.45,532
3.451,542
3.452,549
3.453,555
3.454,555
3.455,544
3.456,527
3.457,520
3.458,513
3.459,510
3.46,507
3.461,500
3.462,492
3.463,488
3.464,484
3.465,491
3.466,495
3.467,495
3.468,493
3.469,497
3.47,504
3.471,509
3.472,518
3.473,521
3.474,513
3.475,508
3.476,509
3.477,512
3.478,516
3.479,514
3.48,514
3.481,517
3.482,514
3.483,512
3.484,506
3.485,496
3.486,492
3.487,493
3.488,499
3.489,509
3.49,513
3.491,510
3.492,506
3.493,508
3.494,504
3.495,497
3.496,508
3.497,513
3.498,507
3.499,504
3.5,509
3.501,506
3.502,501
3.503,491
3.504,490
3.505,490
3.506,490
3.507,499
3.508,499
3.509,506
3.51,519
3.511,513
3.512,514
3.513,513
3.514,510
3.515,511
3.516,515
3.517,516
3.518,515
3.519,510
3.52,510
3.521,510
3.522,514
3.523,524
3.524,539
3.525,544
3.526,545
3.527,542
3.528,537
3.529,526
3.53,506
3.531,491
3.532,485
3.533,492
3.534,501
3.535,498
3.536,495
3.537,502
3.538,501
3.539,502
3.54,513
3.541,519
3.542,523
3.543,518
3.544,511
3.545,516
3.546,533
3.547,542
3.548,548
3.549,568
3.55,591
3.551,609
3.552,623
3.553,633
3.554,645
3.555,660
3.556,678
3.557,696
3.558,707
3.559,711
3.56,717
3.561,743
3.562,776
3.563,796
3.564,820
3.565,844
3.566,864
3.567,869
3.568,866
3.569,864
3.57,862
3.571,848
3.572,829
3.573,808
3.574,787
3.575,764
3.576,732
3.577,683
3.578,625
3.579,564
3.58,505
3.581,453
3.582,407
3.583,361
3.584,329
3.585,313
3.586,297
3.587,289
3.588,287
3.589,281
3.59,279
3.591,276
3.592,275
3.593,282
3.594,286
3.595,283
3.596,284
3.597,294
3.598,301
3.599,316
3.6,338
3.601,354
3.602,366
3.603,380
3.604,392
3.605,404
3.606,421
3.607,440
3.608,452
3.609,460
3.61,463
3.611,463
3.612,461
3.613,466
3.614,474
3.615,495
3.616,518
3.617,532
3.618,538
3.619,542
3.62,546
3.621,551
3.622,551
3.623,553
3.624,554
3.625,558
3.626,556
3.627,551
3.628,551
3.629,551
3.63,552
3.631,549
3.632,545
3.633,553
3.634,562
3.635,561
3.636,554
3.637,544
3.638,537
3.639,542
3.64,552
3.641,561
3.642,566
3.643,569
3.644,565
3.645,565
3.646,567
3.647,559
3.648,553
3.649,553
3.65,552
3.651,551
3.652,550
3.653,552
3.654,554
3.655,557
3.656,561
3.657,564
3.658,567
3.659,571
3.66,567
3.661,559
3.662,550
3.663,547
3.664,549
3.665,555
3.666,563
3.667,566
3.668,566
3.669,566
3.67,568
3.671,566
3.672,567
3.673,567
3.674,567
3.675,567
3.676,569
3.677,570
3.678,570
3.679,564
3.68,562
3.681,562
3.682,557
3.683,555
3.684,556
3.685,562
3.686,561
3.687,549
3.688,548
3.689,555
3.69,567
3.691,575
3.692,572
3.693,576
3.694,583
3.695,575
3.696,574
3.697,578
3.698,579
3.699,579
3.7,568
3.701,560
3.702,553
3.703,553
3.704,566
3.705,590
3.706,600
3.707,597
3.708,588
3.709,575
3.71,568
3.711,571
3.712,561
3.713,561
3.714,572
3.715,581
3.716,586
3.717,592
3.718,596
3.719,591
3.72,580
3.721,572
3.722,571
3.723,571
3.724,571
3.725,567
3.726,561
3.727,561
3.728,563
3.729,568
3.73,572
3.731,577
3.732,578
3.733,572
3.734,581
3.735,589
3.736,583
3.737,576
3.738,567
3.739,569
3.74,574
3.741,572
3.742,568
3.743,568
3.744,569
3.745,574
3.746,576
3.747,578
3.748,578
3.749,576
3.75,577
3.751,585
3.752,589
3.753,583
3.754,579
3.755,588
3.756,594
3.757,599
3.758,599
3.759,589
3.76,582
3.761,586
3.762,587
3.763,593
3.764,605
3.765,601
3.766,588
3.767,581
3.768,579
3.769,575
3.77,572
3.771,575
3.772,580
3.773,585
3.774,591
3.775,596
3.776,602
3.777,603
3.778,597
3.779,592
3.78,590
3.781,593
3.782,598
3.783,600
3.784,592
3.785,579
3.786,571
3.787,571
3.788,567
3.789,565
3.79,571
3.791,572
3.792,572
3.793,578
3.794,580
3.795,587
3.796,590
3.797,588
3.798,590
3.799,589
3.8,585
3.801,578
3.802,574
3.803,570
3.804,565
3.805,562
3.806,556
3.807,549
3.808,540
3.809,540
3.81,549
3.811,549
3.812,545
3.813,548
3.814,552
3.815,557
3.816,560
3.817,557
3.818,552
3.819,547
3.82,542
3.821,540
3.822,540
3.823,536
3.824,525
3.825,513
3.826,506
3.827,501
3.828,497
3.829,500
3.83,510
3.831,517
3.832,513
3.833,508
3.834,499
3.835,489
3.836,484
3.837,475
3.838,469
3.839,450
3.84,448
3.841,455
3.842,463
3.843,469
3.844,475
3.845,478
3.846,478
3.847,483
3.848,472
3.849,464
3.85,463
3.851,464
3.852,467
3.853,465
3.854,466
3.855,462
3.856,457
3.857,454
3.858,443
3.859,436
3.86,433
3.861,431
3.862,432
3.863,430
3.864,428
3.865,429
3.866,437
3.867,447
3.868,454
3.869,455
3.87,457
3.871,460
3.872,460
3.873,458
3.874,455
3.875,454
3.876,450
3.877,461
3.878,460
3.879,459
3.88,460
3.881,463
3.882,472
3.883,472
3.884,469
3.885,472
3.886,471
3.887,467
3.888,467
3.889,463
3.89,461
3.891,461
3.892,457
3.893,454
3.894,464
3.895,471
3.896,470
3.897,467
3.898,469
3.899,472
3.9,469
3.901,467
3.902,466
3.903,456
3.904,449
3.905,449
3.906,450
3.907,453
3.908,463
3.909,470
3.91,468
3.911,463
3.912,460
3.913,463
3.914,468
3.915,467
3.916,460
3.917,455
3.918,451
3.919,447
3.92,444
3.921,448
3.922,448
3.923,440
3.924,440
3.925,457
3.926,465
3.927,480
3.928,487
3.929,487
3.93,482
3.931,480
3.932,483
3.933,489
3.934,487
3.935,487
3.936,489
3.937,482
3.938,475
3.939,470
3.94,459
3.941,469
3.942,484
3.943,492
3.944,488
3.945,478
3.946,461
3.947,455
3.948,459
3.949,461
3.95,456
3.951,458
3.952,460
3.953,462
3.954,460
3.955,460
3.956,471
3.957,486
3.958,500
3.959,505
3.96,511
3.961,514
3.962,512
3.963,492
3.964,467
3.965,460
3.966,466
3.967,475
3.968,481
3.969,488
3.97,493
3.971,491
3.972,488
3.973,483
3.974,481
3.975,482
3.976,487
3.977,486
3.978,483
3.979,492
3.98,499
3.981,493
3.982,493
3.983,497
3.984,500
3.985,500
3.986,499
3.987,503
3.988,505
3.989,506
3.99,500
3.991,498
3.992,500
3.993,500
3.994,501
3.995,500
3.996,501
3.997,503
3.998,506
3.999,500
4.0,494
4.001,486
4.002,486
4.003,491
4.004,492
4.005,490
4.006,487
4.007,491
4.008,500
4.009,505
4.01,512
4.011,515
4.012,515
4.013,515
4.014,512
4.015,504
4.016,499
4.017,498
4.018,498
4.019,499
4.02,498
4.021,502
4.022,504
4.023,508
4.024,514
4.025,511
4.026,509
4.027,504
4.028,501
4.029,510
4.03,522
4.031,524
4.032,513
4.033,499
4.034,495
4.035,497
4.036,498
4.037,505
4.038,516
4.039,523
4.04,528
4.041,521
4.042,508
4.043,495
4.044,487
4.045,495
4.046,507
4.047,524
4.048,523
4.049,512
4.05,511
4.051,513
4.052,519
4.053,523
4.054,534
4.055,542
4.056,534
4.057,528
4.058,527
4.059,525
4.06,525
4.061,519
4.062,512
4.063,508
4.064,511
4.065,524
4.066,537
4.067,543
4.068,551
4.069,549
4.07,542
4.071,539
4.072,541
4.073,539
4.074,531
4.075,525
4.076,525
4.077,524
4.078,521
4.079,522
4.08,533
4.081,543
4.082,552
4.083,554
4.084,542
4.085,518
4.086,510
4.087,512
4.088,503
4.089,494
4.09,489
4.091,495
4.092,495
4.093,496
4.094,501
4.095,504
4.096,500
4.097,500
4.098,504
4.099,507
4.1,513
4.101,515
4.102,510
4.103,505
4.104,507
4.105,510
4.106,509
4.107,511
4.108,511
4.109,503
4.11,492
4.111,484
4.112,481
4.113,489
4.114,492
4.115,501
4.116,501
4.117,502
4.118,498
4.119,495
4.12,497
4.121,497
4.122,498
4.123,502
4.124,502
4.125,499
4.126,495
4.127,497
4.128,504
4.129,514
4.13,511
4.131,509
4.132,513
4.133,521
4.134,521
4.135,520
4.136,510
4.137,500
4.138,501
4.139,508
4.14,520
4.141,528
4.142,537
4.143,547
4.144,553
4.145,546
4.146,535
4.147,521
4.148,514
4.149,520
4.15,525
4.151,520
4.152,511
4.153,502
4.154,494
4.155,491
4.156,492
4.157,494
4.158,494
4.159,503
4.16,504
4.161,494
4.162,494
4.163,495
4.164,497
4.165,507
4.166,510
4.167,508
4.168,505
4.169,508
4.17,512
4.171,514
4.172,515
4.173,514
4.174,515
4.175,517
4.176,509
4.177,502
4.178,507
4.179,515
4.18,524
4.181,534
4.182,537
4.183,545
4.184,563
4.185,581
4.186,590
4.187,594
4.188,609
4.189,627
4.19,646
4.191,663
4.192,681
4.193,702
4.194,724
4.195,750
4.196,767
4.197,782
4.198,792
4.199,803
4.2,814
4.201,816
4.202,821
4.203,823
4.204,820
4.205,812
4.206,794
4.207,770
4.208,746
4.209,719
4.21,689
4.211,644
4.212,591
4.213,544
4.214,496
4.215,452
4.216,402
4.217,359
4.218,321
4.219,293
4.22,279
4.221,273
4.222,269
4.223,263
4.224,256
4.225,259
4.226,258
4.227,252
4.228,257
4.229,267
4.23,288
4.231,307
4.232,316
4.233,315
4.234,320
4.235,327
4.236,340
4.237,352
4.238,365
4.239,381
4.24,400
4.241,412
4.242,416
4.243,408
4.244,410
4.245,433
4.246,446
4.247,450
4.248,457
4.249,464
4.25,468
4.251,471
4.252,485
4.253,496
4.254,500
4.255,503
4.256,509
4.257,513
4.258,504
4.259,508
4.26,519
4.261,525
4.262,529
4.263,530
4.264,525
4.265,514
4.266,507
4.267,498
4.268,492
4.269,496
4.27,505
4.271,508
4.272,507
4.273,505
4.274,507
4.275,507
4.276,508
4.277,507
4.278,506
4.279,506
4.28,498
4.281,486
4.282,491
4.283,502
4.284,515
4.285,516
4.286,513
4.287,516
4.288,517
4.289,521
4.29,524
4.291,518
4.292,511
4.293,498
4.294,487
4.295,488
4.296,497
4.297,515
4.298,519
4.299,518
4.3,522
4.301,526
4.302,543
4.303,548
4.304,543
4.305,547
4.306,549
4.307,543
4.308,530
4.309,523
4.31,518
4.311,511
4.312,500
4.313,495
4.314,491
4.315,491
4.316,491
4.317,490
4.318,492
4.319,495
4.32,499
4.321,507
4.322,517
4.323,519
4.324,524
4.325,523
4.326,515
4.327,505
4.328,501
4.329,502
4.33,510
4.331,511
4.332,502
4.333,512
4.334,515
4.335,512
4.336,509
4.337,508
4.338,507
4.339,502
4.34,502
4.341,505
4.342,510
4.343,516
4.344,523
4.345,511
4.346,498
4.347,490
4.348,481
4.349,470
4.35,473
4.351,488
4.352,495
4.353,504
4.354,510
4.355,509
4.356,501
4.357,499
4.358,503
4.359,504
4.36,501
4.361,503
4.362,508
4.363,512
4.364,511
4.365,510
4.366,509
4.367,505
4.368,496
4.369,492
4.37,501
4.371,502
4.372,506
4.373,513
4.374,514
4.375,521
4.376,527
4.377,522
4.378,512
4.379,509
4.38,506
4.381,503
4.382,504
4.383,498
4.384,494
4.385,489
4.386,491
4.387,499
4.388,506
4.389,510
4.39,514
4.391,518
4.392,515
4.393,517
4.394,522
4.395,519
4.396,513
4.397,511
4.398,514
4.399,519
4.4,528
4.401,533
4.402,532
4.403,527
4.404,523
4.405,519
4.406,518
4.407,512
4.408,503
4.409,506
4.41,506
4.411,504
4.412,507
4.413,512
4.414,523
4.415,533
4.416,539
4.417,541
4.418,542
4.419,531
4.42,525
4.421,520
4.422,514
4.423,517
4.424,514
4.425,518
4.426,524
4.427,518
4.428,510
4.429,509
4.43,508
4.431,507
4.432,503
4.433,508
4.434,516
4.435,513
4.436,502
4.437,494
4.438,490
4.439,476
4.44,471
4.441,474
4.442,475
4.443,475
4.444,472
4.445,470
4.446,467
4.447,465
4.448,470
4.449,468
4.45,465
4.451,465
4.452,462
4.453,457
4.454,456
4.455,455
4.456,444
4.457,427
4.458,416
4.459,414
4.46,415
4.461,421
4.462,421
4.463,401
4.464,400
4.465,411
4.466,416
4.467,419
4.468,409
4.469,395
4.47,386
4.471,384
4.472,388
4.473,393
4.474,403
4.475,412
4.476,405
4.477,397
4.478,389
4.479,388
4.48,396
4.481,399
4.482,399
4.483,398
4.484,394
4.485,387
4.486,383
4.487,378
4.488,379
4.489,381
4.49,375
4.491,371
4.492,364
4.493,368
4.494,367
4.495,362
4.496,369
4.497,371
4.498,359
4.499,350
4.5,350
4.501,355
4.502,359
4.503,363
4.504,361
4.505,354
4.506,352
4.507,357
4.508,364
4.509,370
4.51,365
4.511,359
4.512,350
4.513,348
4.514,354
4.515,361
4.516,366
4.517,364
4.518,358
4.519,357
4.52,357
4.521,360
4.522,365
4.523,370
4.524,376
4.525,382
4.526,378
4.527,369
4.528,364
4.529,365
4.53,365
4.531,361
4.532,363
4.533,360
4.534,352
4.535,349
4.536,362
4.537,373
4.538,376
4.539,374
4.54,359
4.541,349
4.542,348
4.543,345
4.544,351
4.545,355
4.546,355
4.547,357
4.548,367
4.549,384
4.55,403
4.551,413
4.552,408
4.553,403
4.554,387
4.555,373
4.556,374
4.557,369
4.558,368
4.559,368
4.56,363
4.561,362
4.562,366
4.563,366
4.564,362
4.565,361
4.566,365
4.567,370
4.568,368
4.569,356
4.57,356
4.571,364
4.572,374
4.573,384
4.574,380
4.575,372
4.576,362
4.577,363
4.578,374
4.579,385
4.58,395
4.581,399
4.582,403
4.583,403
4.584,404
4.585,404
4.586,404
4.587,402
4.588,397
4.589,394
4.59,391
4.591,398
4.592,405
4.593,406
4.594,404
4.595,403
4.596,400
4.597,399
4.598,401
4.599,412
4.6,417
4.601,421
4.602,426
4.603,425
4.604,431
4.605,434
4.606,432
4.607,430
4.608,432
4.609,434
4.61,434
4.611,432
4.612,416
4.613,404
4.614,402
4.615,403
4.616,407
4.617,409
4.618,412
4.619,417
4.62,416
4.621,417
4.622,420
4.623,422
4.624,424
4.625,427
4.626,432
4.627,431
4.628,430
4.629,428
4.63,427
4.631,430
4.632,432
4.633,430
4.634,433
4.635,439
4.636,437
4.637,443
4.638,448
4.639,441
4.64,426
4.641,423
4.642,426
4.643,423
4.644,435
4.645,449
4.646,453
4.647,457
4.648,460
4.649,462
4.65,459
4.651,457
4.652,454
4.653,447
4.654,443
4.655,454
4.656,474
4.657,477
4.658,472
4.659,477
4.66,484
4.661,470
4.662,455
4.663,455
4.664,452
4.665,448
4.666,451
4.667,457
4.668,456
4.669,452
4.67,451
4.671,458
4.672,460
4.673,459
4.674,458
4.675,451
4.676,446
4.677,454
4.678,463
4.679,467
4.68,468
4.681,473
4.682,467
4.683,462
4.684,465
4.685,476
4.686,484
4.687,483
4.688,482
4.689,478
4.69,482
4.691,485
4.692,480
4.693,483
4.694,483
4.695,483
4.696,484
4.697,481
4.698,483
4.699,491
4.7,496
4.701,496
4.702,493
4.703,487
4.704,478
4.705,470
4.706,464
4.707,459
4.708,455
4.709,454
4.71,451
4.711,452
4.712,455
4.713,464
4.714,471
4.715,478
4.716,488
4.717,494
4.718,491
4.719,490
4.72,494
4.721,499
4.722,502
4.723,504
4.724,503
4.725,501
4.726,506
4.727,513
4.728,520
4.729,526
4.73,525
4.731,519
4.732,513
4.733,510
4.734,506
4.735,509
4.736,511
4.737,511
4.738,505
4.739,498
4.74,490
4.741,491
4.742,491
4.743,487
4.744,485
4.745,497
4.746,520
4.747,540
4.748,553
4.749,564
4.75,556
4.751,551
4.752,554
4.753,547
4.754,529
4.755,511
4.756,490
4.757,477
4.758,476
4.759,474
4.76,467
4.761,463
4.762,463
4.763,470
4.764,477
4.765,480
4.766,487
4.767,491
4.768,496
4.769,497
4.77,499
4.771,501
4.772,503
4.773,502
4.774,504
4.775,505
4.776,504
4.777,504
4.778,504
4.779,497
4.78,494
4.781,499
4.782,505
4.783,511
4.784,507
4.785,501
4.786,507
4.787,524
4.788,520
4.789,511
4.79,508
4.791,508
4.792,496
4.793,480
4.794,479
4.795,481
4.796,479
4.797,484
4.798,491
4.799,490
4.8,488
4.801,488
4.802,486
4.803,481
4.804,491
4.805,504
4.806,504
4.807,492
4.808,492
4.809,493
4.81,489
4.811,492
4.812,503
4.813,512
4.814,512
4.815,514
4.816,516
4.817,515
4.818,508
4.819,497
4.82,494
4.821,502
4.822,515
4.823,515
4.824,512
4.825,513
4.826,508
4.827,515
4.828,528
4.829,534
4.83,533
4.831,528
4.832,521
4.833,519
4.834,516
4.835,513
4.836,498
4.837,489
4.838,503
4.839,523
4.84,532
4.841,540
4.842,549
4.843,555
4.844,566
4.845,588
4.846,598
4.847,615
4.848,646
4.849,677
4.85,699
4.851,718
4.852,728
4.853,731
4.854,727
4.855,723
4.856,728
4.857,747
4.858,775
4.859,805
4.86,828
4.861,838
4.862,842
4.863,843
4.864,839
4.865,828
4.866,807
4.867,784
4.868,764
4.869,731
4.87,699
4.871,668
4.872,633
4.873,591
4.874,535
4.875,470
4.876,396
4.877,357
4.878,351
4.879,338
4.88,318
4.881,296
4.882,290
4.883,301
4.884,312
4.885,311
4.886,308
4.887,322
4.888,336
4.889,328
4.89,311
4.891,318
4.892,335
4.893,353
4.894,366
4.895,371
4.896,385
4.897,396
4.898,395
4.899,391
4.9,396
4.901,397
4.902,401
4.903,422
4.904,438
4.905,448
4.906,451
4.907,456
4.908,465
4.909,477
4.91,490
4.911,508
4.912,533
4.913,555
4.914,564
4.915,575
4.916,580
4.917,585
4.918,600
4.919,596
4.92,579
4.921,552
4.922,540
4.923,531
4.924,517
4.925,490
4.926,473
4.927,465
4.928,465
4.929,448
4.93,443
4.931,460
4.932,477
4.933,489
4.934,495
4.935,491
4.936,486
4.937,501
4.938,509
4.939,507
4.94,506
4.941,507
4.942,509
4.943,514
4.944,512
4.945,505
4.946,508
4.947,513
4.948,513
4.949,522
4.95,523
4.951,516
4.952,505
4.953,507
4.954,507
4.955,508
4.956,510
4.957,517
4.958,509
4.959,506
4.96,503
4.961,497
4.962,502
4.963,512
4.964,521
4.965,519
4.966,509
4.967,509
4.968,516
4.969,515
4.97,509
4.971,510
4.972,508
4.973,512
4.974,518
4.975,520
4.976,516
4.977,512
4.978,518
4.979,524
4.98,530
4.981,530
4.982,523
4.983,519
4.984,509
4.985,501
4.986,501
4.987,509
4.988,517
4.989,520
4.99,524
4.991,514
4.992,502
4.993,498
4.994,496
4.995,498
4.996,507
4.997,511
4.998,508
4.999,501
5.0,492
5.001,498
5.002,499
5.003,502
5.004,503
5.005,512
5.006,526
5.007,535
5.008,538
5.009,540
5.01,541
5.011,541
5.012,549
5.013,535
5.014,510
5.015,502
5.016,501
5.017,503
5.018,508
5.019,508
5.02,506
5.021,506
5.022,516
5.023,518
5.024,508
5.025,509
5.026,507
5.027,503
5.028,508
5.029,516
5.03,520
5.031,525
5.032,526
5.033,518
5.034,511
5.035,519
5.036,528
5.037,533
5.038,531
5.039,529
5.04,531
5.041,524
5.042,529
5.043,531
5.044,519
5.045,521
5.046,518
5.047,513
5.048,518
5.049,519
5.05,517
5.051,523
5.052,533
5.053,538
5.054,545
5.055,555
5.056,564
5.057,569
5.058,563
5.059,551
5.06,538
5.061,528
5.062,533
5.063,547
5.064,557
5.065,556
5.066,560
5.067,572
5.068,580
5.069,580
5.07,585
5.071,586
5.072,577
5.073,572
5.074,577
5.075,580
5.076,575
5.077,567
5.078,567
5.079,571
5.08,575
5.081,585
5.082,587
5.083,585
5.084,582
5.085,595
5.086,611
5.087,612
5.088,615
5.089,630
5.09,629
5.091,608
5.092,589
5.093,577
5.094,567
5.095,568
5.096,568
5.097,560
5.098,552
5.099,547
5.1,536
5.101,538
5.102,549
5.103,547
5.104,547
5.105,555
5.106,568
5.107,581
5.108,593
5.109,599
5.11,604
5.111,600
5.112,590
5.113,572
5.114,562
5.115,564
5.116,562
5.117,564
5.118,561
5.119,549
5.12,542
5.121,536
5.122,524
5.123,525
5.124,530
5.125,530
5.126,534
5.127,533
5.128,521
5.129,501
5.13,505
5.131,520
5.132,523
5.133,519
5.134,520
5.135,531
5.136,535
5.137,534
5.138,523
5.139,513
5.14,515
5.141,524
5.142,532
5.143,523
5.144,517
5.145,513
5.146,509
5.147,511
5.148,509
5.149,505
5.15,507
5.151,514
5.152,517
5.153,515
5.154,521
5.155,526
5.156,521
5.157,509
5.158,504
5.159,502
5.16,503
5.161,501
5.162,491
5.163,483
5.164,487
5.165,487
5.166,486
5.167,485
5.168,488
5.169,496
5.17,498
5.171,495
5.172,508
5.173,523
5.174,524
5.175,522
5.176,524
5.177,515
5.178,500
5.179,485
5.18,483
5.181,490
5.182,507
5.183,520
5.184,526
5.185,525
5.186,523
5.187,515
5.188,502
5.189,496
5.19,506
5.191,512
5.192,500
5.193,483
5.194,481
5.195,487
5.196,489
5.197,483
5.198,496
5.199,504
5.2,504
5.201,510
5.202,526
5.203,526
5.204,516
5.205,513
5.206,515
5.207,515
5.208,520
5.209,518
5.21,510
5.211,501
5.212,495
5.213,491
5.214,496
5.215,500
5.216,504
5.217,505
5.218,501
5.219,494
5.22,489
5.221,488
5.222,488
5.223,489
5.224,493
5.225,496
5.226,486
5.227,471
5.228,467
5.229,478
5.23,484
5.231,480
5.232,481
5.233,487
5.234,483
5.235,480
5.236,488
5.237,499
5.238,501
5.239,496
5.24,489
5.241,489
5.242,494
5.243,496
5.244,498
5.245,502
5.246,503
5.247,496
5.248,487
5.249,483
5.25,481
5.251,476
5.252,471
5.253,467
5.254,466
5.255,467
5.256,473
5.257,484
5.258,485
5.259,480
5.26,482
5.261,486
5.262,498
5.263,507
5.264,512
5.265,501
5.266,483
5.267,487
5.268,490
5.269,487
5.27,489
5.271,493
5.272,495
5.273,490
5.274,489
5.275,492
5.276,485
5.277,484
5.278,492
5.279,500
5.28,507
5.281,511
5.282,513
5.283,518
5.284,522
5.285,521
5.286,519
5.287,512
5.288,519
5.289,528
5.29,519
5.291,518
5.292,520
5.293,513
5.294,508
5.295,508
5.296,507
5.297,512
5.298,515
5.299,520
5.3,524
5.301,527
5.302,523
5.303,518
5.304,508
5.305,499
5.306,496
5.307,483
5.308,493
5.309,503
5.31,503
5.311,505
5.312,516
5.313,530
5.314,532
5.315,533
5.316,527
5.317,520
5.318,525
5.319,529
5.32,526
5.321,519
5.322,523
5.323,529
5.324,536
5.325,539
5.326,534
5.327,533
5.328,534
5.329,532
5.33,531
5.331,538
5.332,544
5.333,539
5.334,537
5.335,535
5.336,534
5.337,529
5.338,530
5.339,530
5.34,536
5.341,538
5.342,547
5.343,555
5.344,545
5.345,526
5.346,523
5.347,525
5.348,525
5.349,522
5.35,520
5.351,520
5.352,527
5.353,532
5.354,539
5.355,539
5.356,536
5.357,530
5.358,530
5.359,526
5.36,524
5.361,523
5.362,525
5.363,533
5.364,539
5.365,533
5.366,529
5.367,529
5.368,531
5.369,526
5.37,526
5.371,529
5.372,533
5.373,535
5.374,538
5.375,537
5.376,532
5.377,520
5.378,522
5.379,526
5.38,527
5.381,527
5.382,531
5.383,536
5.384,547
5.385,555
5.386,555
5.387,559
5.388,559
5.389,558
5.39,554
5.391,549
5.392,546
5.393,549
5.394,548
5.395,543
5.396,540
5.397,555
5.398,563
5.399,557
5.4,545
5.401,539
5.402,545
5.403,546
5.404,546
5.405,558
5.406,575
5.407,576
5.408,568
5.409,563
5.41,565
5.411,569
5.412,569
5.413,565
5.414,559
5.415,555
5.416,551
5.417,550
5.418,544
5.419,538
5.42,533
5.421,529
5.422,527
5.423,526
5.424,530
5.425,536
5.426,538
5.427,537
5.428,532
5.429,526
5.43,518
5.431,513
5.432,516
5.433,519
5.434,519
5.435,521
5.436,520
5.437,526
5.438,525
5.439,524
5.44,524
5.441,516
5.442,502
5.443,497
5.444,496
5.445,489
5.446,496
5.447,508
5.448,518
5.449,519
5.45,504
5.451,497
5.452,494
5.453,504
5.454,520
5.455,527
5.456,524
5.457,525
5.458,527
5.459,520
5.46,509
5.461,499
5.462,494
5.463,492
5.464,491
5.465,496
5.466,504
5.467,508
5.468,515
5.469,524
5.47,522
5.471,521
5.472,521
5.473,524
5.474,524
5.475,523
5.476,519
5.477,517
5.478,515
5.479,520
5.48,527
5.481,527
5.482,528
5.483,533
5.484,534
5.485,530
5.486,528
5.487,518
5.488,505
5.489,502
5.49,504
5.491,503
5.492,504
5.493,505
5.494,508
5.495,507
5.496,508
5.497,515
5.498,523
5.499,519
5.5,514
5.501,517
5.502,519
5.503,521
5.504,526
5.505,521
5.506,514
5.507,514
5.508,518
5.509,529
5.51,540
5.511,551
5.512,568
5.513,585
5.514,599
5.515,617
5.516,636
5.517,656
5.518,674
5.519,702
5.52,720
5.521,733
5.522,747
5.523,765
5.524,788
5.525,798
5.526,804
5.527,810
5.528,808
5.529,810
5.53,814
5.531,814
5.532,809
5.533,797
5.534,777
5.535,759
5.536,742
5.537,720
5.538,686
5.539,636
5.54,580
5.541,528
5.542,486
5.543,444
5.544,407
5.545,369
5.546,341
5.547,318
5.548,304
5.549,298
5.55,287
5.551,279
5.552,275
5.553,279
5.554,285
5.555,295
5.556,298
5.557,300
5.558,302
5.559,300
5.56,300
5.561,312
5.562,324
5.563,338
5.564,351
5.565,364
5.566,375
5.567,383
5.568,392
5.569,404
5.57,420
5.571,429
5.572,434
5.573,441
5.574,449
5.575,459
5.576,472
5.577,484
5.578,492
5.579,494
5.58,492
5.581,492
5.582,497
5.583,499
5.584,495
5.585,492
5.586,488
5.587,486
5.588,486
5.589,485
5.59,487
5.591,489
5.592,489
5.593,492
5.594,494
5.595,492
5.596,489
5.597,494
5.598,496
5.599,497
5.6,505
5.601,506
5.602,505
5.603,508
5.604,507
5.605,510
5.606,511
5.607,513
5.608,515
5.609,512
5.61,512
5.611,510
5.612,506
5.613,510
5.614,515
5.615,519
5.616,512
5.617,511
5.618,512
5.619,518
5.62,523
5.621,517
5.622,508
5.623,504
5.624,501
5.625,496
5.626,499
5.627,505
5.628,507
5.629,508
5.63,508
5.631,506
5.632,507
5.633,501
5.634,492
5.635,486
5.636,490
5.637,503
5.638,513
5.639,521
5.64,519
5.641,519
5.642,519
5.643,517
5.644,512
5.645,505
5.646,519
5.647,529
5.648,525
5.649,521
5.65,518
5.651,518
5.652,521
5.653,525
5.654,527
5.655,528
5.656,524
5.657,527
5.658,524
5.659,524
5.66,519
5.661,513
5.662,513
5.663,518
5.664,524
5.665,520
5.666,515
5.667,515
5.668,519
5.669,523
5.67,522
5.671,520
5.672,522
5.673,522
5.674,522
5.675,522
5.676,521
5.677,516
5.678,517
5.679,519
5.68,519
5.681,515
5.682,518
5.683,519
5.684,524
5.685,532
5.686,531
5.687,534
5.688,537
5.689,532
5.69,524
5.691,535
5.692,544
5.693,546
5.694,535
5.695,532
5.696,529
5.697,515
5.698,509
5.699,508
5.7,509
5.701,510
5.702,515
5.703,523
5.704,524
5.705,517
5.706,515
5.707,517
5.708,511
5.709,507
5.71,508
5.711,517
5.712,521
5.713,526
5.714,525
5.715,525
5.716,531
5.717,532
5.718,532
5.719,536
5.72,539
5.721,536
5.722,540
5.723,547
5.724,547
5.725,547
5.726,549
5.727,544
5.728,543
5.729,544
5.73,546
5.731,547
5.732,542
5.733,536
5.734,535
5.735,536
5.736,544
5.737,555
5.738,553
5.739,544
5.74,541
5.741,550
5.742,551
5.743,549
5.744,549
5.745,551
5.746,553
5.747,556
5.748,559
5.749,559
5.75,556
5.751,553
5.752,547
5.753,547
5.754,541
5.755,536
5.756,534
5.757,543
5.758,549
5.759,551
5.76,548
5.761,543
5.762,536
5.763,530
5.764,527
5.765,530
5.766,533
5.767,536
5.768,534
5.769,538
5.77,547
5.771,542
5.772,529
5.773,529
5.774,530
5.775,529
5.776,527
5.777,535
5.778,536
5.779,523
5.78,514
5.781,505
5.782,510
5.783,514
5.784,510
5.785,510
5.786,499
5.787,482
5.788,480
5.789,492
5.79,498
5.791,489
5.792,480
5.793,475
5.794,475
5.795,470
5.796,471
5.797,476
5.798,480
5.799,474
5.8,481
5.801,483
5.802,481
5.803,459
5.804,450
5.805,448
5.806,439
5.807,435
5.808,429
5.809,439
5.81,455
5.811,456
5.812,457
5.813,467
5.814,467
5.815,462
5.816,453
5.817,447
5.818,444
5.819,443
5.82,443
5.821,438
5.822,437
5.823,439
5.824,442
5.825,441
5.826,435
5.827,437
5.828,438
5.829,432
5.83,427
5.831,432
5.832,440
5.833,451
5.834,454
5.835,452
5.836,455
5.837,453
5.838,441
5.839,447
5.84,452
5.841,458
5.842,466
5.843,460
5.844,449
5.845,447
5.846,452
5.847,454
5.848,460
5.849,466
5.85,461
5.851,459
5.852,465
5.853,467
5.854,467
5.855,471
5.856,470
5.857,460
5.858,455
5.859,455
5.86,455
5.861,456
5.862,456
5.863,457
5.864,457
5.865,458
5.866,458
5.867,459
5.868,457
5.869,459
5.87,459
5.871,457
5.872,456
5.873,458
5.874,460
5.875,461
5.876,467
5.877,470
5.878,470
5.879,465
5.88,460
5.881,458
5.882,462
5.883,468
5.884,467
5.885,465
5.886,466
5.887,467
5.888,464
5.889,460
5.89,463
5.891,472
5.892,475
5.893,473
5.894,476
5.895,471
5.896,465
5.897,467
5.898,471
5.899,468
5.9,466
5.901,467
5.902,462
5.903,459
5.904,467
5.905,472
5.906,473
5.907,474
5.908,482
5.909,489
5.91,490
5.911,480
5.912,477
5.913,475
5.914,460
5.915,462
5.916,467
5.917,470
5.918,469
5.919,468
5.92,468
5.921,466
5.922,460
5.923,455
5.924,457
5.925,461
5.926,470
5.927,480
5.928,489
5.929,495
5.93,489
5.931,485
5.932,476
5.933,467
5.934,465
5.935,463
5.936,469
5.937,476
5.938,485
5.939,489
5.94,483
5.941,479
5.942,477
5.943,476
5.944,478
5.945,483
5.946,478
5.947,475
5.948,474
5.949,472
5.95,482
5.951,485
5.952,487
5.953,495
5.954,504
5.955,503
5.956,501
5.957,499
5.958,497
5.959,498
5.96,499
5.961,496
5.962,488
5.963,487
5.964,488
5.965,492
5.966,497
5.967,498
5.968,497
5.969,500
5.97,496
5.971,492
5.972,486
5.973,479
5.974,474
5.975,473
5.976,482
5.977,488
5.978,491
5.979,489
5.98,491
5.981,494
5.982,491
5.983,496
5.984,493
5.985,494
5.986,504
5.987,499
5.988,503
5.989,504
5.99,500
5.991,494
5.992,493
5.993,491
5.994,488
5.995,483
5.996,483
5.997,492
5.998,492
5.999,495
6.0,500
6.001,502
6.002,499
6.003,499
6.004,507
6.005,513
6.006,516
6.007,511
6.008,498
6.009,485
6.01,486
6.011,491
6.012,492
6.013,495
6.014,492
6.015,490
6.016,483
6.017,488
6.018,498
6.019,509
6.02,512
6.021,505
6.022,499
6.023,501
6.024,505
6.025,505
6.026,502
6.027,499
6.028,500
6.029,500
6.03,502
6.031,502
6.032,498
6.033,500
6.034,502
6.035,506
6.036,504
6.037,504
6.038,507
6.039,511
6.04,515
6.041,518
6.042,511
6.043,507
6.044,508
6.045,512
6.046,519
6.047,521
6.048,515
6.049,509
6.05,512
6.051,512
6.052,509
6.053,503
6.054,501
6.055,498
6.056,497
6.057,498
6.058,495
6.059,492
6.06,495
6.061,503
6.062,508
6.063,512
6.064,514
6.065,510
6.066,506
6.067,511
6.068,519
6.069,519
6.07,516
6.071,512
6.072,506
6.073,515
6.074,532
6.075,542
6.076,544
6.077,539
6.078,537
6.079,537
6.08,536
6.081,532
6.082,535
6.083,535
6.084,537
6.085,541
6.086,536
6.087,531
6.088,532
6.089,534
6.09,532
6.091,532
6.092,532
6.093,531
6.094,541
6.095,548
6.096,540
6.097,531
6.098,527
6.099,517
6.1,513
6.101,514
6.102,518
6.103,525
6.104,527
6.105,532
6.106,529
6.107,526
6.108,526
6.109,523
6.11,513
6.111,504
6.112,500
6.113,490
6.114,487
6.115,489
6.116,488
6.117,491
6.118,496
6.119,496
6.12,495
6.121,498
6.122,499
6.123,499
6.124,499
6.125,500
6.126,503
6.127,507
6.128,507
6.129,502
6.13,499
6.131,500
6.132,497
6.133,502
6.134,505
6.135,504
6.136,503
6.137,504
6.138,505
6.139,504
6.14,500
6.141,496
6.142,487
6.143,489
6.144,493
6.145,496
6.146,508
6.147,515
6.148,516
6.149,515
6.15,509
6.151,495
6.152,486
6.153,487
6.154,490
6.155,494
6.156,491
6.157,494
6.158,495
6.159,499
6.16,499
6.161,495
6.162,498
6.163,504
6.164,507
6.165,508
6.166,508
6.167,508
6.168,512
6.169,515
6.17,514
6.171,511
6.172,506
6.173,508
6.174,506
6.175,504
6.176,506
6.177,502
6.178,499
6.179,501
6.18,508
6.181,509
6.182,502
6.183,499
6.184,498
6.185,504
6.186,502
6.187,504
6.188,507
6.189,512
6.19,518
6.191,522
6.192,526
6.193,529
6.194,531
6.195,541
6.196,552
6.197,561
6.198,572
6.199,591
6.2,615
6.201,637
6.202,663
6.203,693
6.204,720
6.205,724
6.206,724
6.207,738
6.208,753
6.209,763
6.21,774
6.211,788
6.212,799
6.213,809
6.214,820
6.215,831
6.216,831
6.217,826
6.218,813
6.219,798
6.22,779
6.221,758
6.222,727
6.223,691
6.224,645
6.225,591
6.226,538
6.227,481
6.228,428
6.229,380
6.23,350
6.231,330
6.232,307
6.233,285
6.234,268
6.235,263
6.236,265
6.237,268
6.238,271
6.239,275
6.24,270
6.241,277
6.242,278
6.243,278
6.244,280
6.245,285
6.246,291
6.247,299
6.248,317
6.249,339
6.25,358
6.251,375
6.252,389
6.253,401
6.254,411
6.255,422
6.256,432
6.257,440
6.258,446
6.259,451
6.26,459
6.261,475
6.262,483
6.263,479
6.264,474
6.265,476
6.266,477
6.267,483
6.268,489
6.269,493
6.27,496
6.271,491
6.272,489
6.273,489
6.274,491
6.275,498
6.276,500
6.277,498
6.278,495
6.279,495
6.28,496
6.281,499
6.282,505
6.283,508
6.284,508
6.285,501
6.286,497
6.287,497
6.288,500
6.289,500
6.29,500
6.291,497
6.292,495
6.293,492
6.294,490
6.295,495
6.296,492
6.297,487
6.298,490
6.299,499
6.3,505
6.301,503
6.302,501
6.303,497
6.304,498
6.305,502
6.306,502
6.307,505
6.308,512
6.309,518
6.31,513
6.311,507
6.312,502
6.313,504
6.314,508
6.315,512
6.316,512
6.317,507
6.318,501
6.319,499
6.32,505
6.321,514
6.322,518
6.323,519
6.324,518
6.325,514
6.326,513
6.327,511
6.328,509
6.329,510
6.33,512
6.331,512
6.332,508
6.333,509
6.334,510
6.335,512
6.336,514
6.337,515
6.338,521
6.339,519
6.34,505
6.341,499
6.342,504
6.343,512
6.344,510
6.345,502
6.346,500
6.347,499
6.348,499
6.349,500
6.35,502
6.351,508
6.352,507
6.353,497
6.354,505
6.355,516
6.356,524
6.357,523
6.358,518
6.359,510
6.36,510
6.361,514
6.362,513
6.363,504
6.364,502
6.365,510
6.366,521
6.367,521
6.368,513
6.369,504
6.37,503
6.371,502
6.372,502
6.373,503
6.374,507
6.375,510
6.376,511
6.377,509
6.378,511
6.379,506
6.38,502
6.381,500
6.382,494
6.383,486
6.384,488
6.385,497
6.386,502
6.387,505
6.388,503
6.389,503
6.39,507
6.391,511
6.392,512
6.393,512
6.394,516
6.395,518
6.396,515
6.397,518
6.398,519
6.399,518
6.4,515
6.401,513
6.402,513
6.403,521
6.404,529
6.405,525
6.406,527
6.407,529
6.408,524
6.409,522
6.41,523
6.411,521
6.412,519
6.413,521
6.414,516
6.415,508
6.416,496
6.417,492
6.418,496
6.419,511
6.42,528
6.421,540
6.422,546
6.423,540
6.424,533
6.425,531
6.426,531
6.427,526
6.428,524
6.429,534
6.43,542
6.431,532
6.432,527
6.433,528
6.434,534
6.435,540
6.436,540
6.437,543
6.438,543
6.439,545
6.44,550
6.441,550
6.442,551
6.443,540
6.444,529
6.445,527
6.446,534
6.447,542
6.448,541
6.449,532
6.45,530
6.451,528
6.452,523
6.453,528
6.454,538
6.455,536
6.456,526
6.457,526
6.458,525
6.459,519
6.46,515
6.461,512
6.462,504
6.463,502
6.464,500
6.465,504
6.466,503
6.467,505
6.468,513
6.469,517
6.47,520
6.471,524
6.472,523
6.473,515
6.474,502
6.475,492
6.476,480
6.477,476
6.478,478
6.479,473
6.48,469
6.481,469
6.482,472
6.483,473
6.484,475
6.485,474
6.486,479
6.487,480
6.488,482
6.489,481
6.49,480
6.491,479
6.492,479
6.493,482
6.494,479
6.495,476
6.496,478
6.497,489
6.498,487
6.499,481
6.5,465
6.501,460
6.502,461
6.503,458
6.504,445
6.505,444
6.506,449
6.507,450
6.508,451
6.509,458
6.51,463
6.511,463
6.512,464
6.513,472
6.514,468
6.515,456
6.516,453
6.517,452
6.518,451
6.519,451
6.52,451
6.521,451
6.522,454
6.523,460
6.524,463
6.525,470
6.526,473
6.527,471
6.528,464
6.529,462
6.53,455
6.531,452
6.532,454
6.533,460
6.534,462
6.535,461
6.536,465
6.537,470
6.538,470
6.539,471
6.54,473
6.541,476
6.542,477
6.543,471
6.544,465
6.545,463
6.546,473
6.547,489
6.548,495
6.549,493
6.55,491
6.551,490
6.552,487
6.553,477
6.554,471
6.555,477
6.556,476
6.557,482
6.558,485
6.559,480
6.56,480
6.561,479
6.562,478
6.563,477
6.564,473
6.565,473
6.566,474
6.567,480
6.568,479
6.569,478
6.57,480
6.571,480
6.572,484
6.573,485
6.574,488
6.575,487
6.576,487
6.577,484
6.578,483
6.579,479
6.58,480
6.581,477
6.582,465
6.583,465
6.584,477
6.585,487
6.586,495
6.587,494
6.588,493
6.589,496
6.59,489
6.591,487
6.592,485
6.593,481
6.594,478
6.595,483
6.596,491
6.597,496
6.598,502
6.599,499
6.6,497
6.601,492
6.602,486
6.603,487
6.604,491
6.605,494
6.606,490
6.607,483
6.608,478
6.609,470
6.61,475
6.611,485
6.612,491
6.613,493
6.614,492
6.615,494
6.616,499
6.617,497
6.618,494
6.619,492
6.62,495
6.621,495
6.622,496
6.623,496
6.624,493
6.625,491
6.626,488
6.627,490
6.628,497
6.629,504
6.63,515
6.631,515
6.632,506
6.633,503
6.634,503
6.635,500
6.636,504
6.637,510
6.638,511
6.639,512
6.64,512
6.641,509
6.642,510
6.643,508
6.644,507
6.645,503
6.646,505
6.647,508
6.648,506
6.649,505
6.65,505
6.651,505
6.652,503
6.653,502
6.654,503
6.655,507
6.656,508
6.657,514
6.658,518
6.659,513
6.66,510
6.661,507
6.662,511
6.663,509
6.664,507
6.665,507
6.666,505
6.667,511
6.668,510
6.669,512
6.67,518
6.671,512
6.672,497
6.673,490
6.674,491
6.675,500
6.676,506
6.677,513
6.678,521
6.679,526
6.68,529
6.681,524
6.682,523
6.683,522
6.684,524
6.685,523
6.686,521
6.687,517
6.688,512
6.689,516
6.69,521
6.691,524
6.692,518
6.693,515
6.694,512
6.695,513
6.696,509
6.697,500
6.698,497
6.699,500
6.7,508
6.701,513
6.702,515
6.703,517
6.704,519
6.705,521
6.706,518
6.707,514
6.708,512
6.709,515
6.71,518
6.711,518
6.712,517
6.713,518
6.714,519
6.715,523
6.716,525
6.717,528
6.718,531
6.719,531
6.72,526
6.721,515
6.722,511
6.723,515
6.724,518
6.725,515
6.726,517
6.727,524
6.728,527
6.729,521
6.73,513
6.731,505
6.732,502
6.733,494
6.734,491
6.735,491
6.736,498
6.737,504
6.738,508
6.739,510
6.74,509
6.741,505
6.742,510
6.743,508
6.744,507
6.745,506
6.746,510
6.747,512
6.748,517
6.749,515
6.75,519
6.751,526
6.752,532
6.753,535
6.754,526
6.755,520
6.756,508
6.757,499
6.758,496
6.759,496
6.76,497
6.761,504
6.762,516
6.763,523
6.764,520
6.765,518
6.766,513
6.767,508
6.768,518
6.769,526
6.77,536
6.771,541
6.772,544
6.773,549
6.774,552
6.775,555
6.776,557
6.777,556
6.778,556
6.779,549
6.78,543
6.781,546
6.782,552
6.783,539
6.784,527
6.785,521
6.786,516
6.787,515
6.788,520
6.789,523
6.79,521
6.791,522
6.792,523
6.793,532
6.794,539
6.795,536
6.796,529
6.797,519
6.798,515
6.799,520
6.8,523
6.801,523
6.802,520
6.803,513
6.804,505
6.805,502
6.806,500
6.807,493
6.808,486
6.809,487
6.81,491
6.811,485
6.812,484
6.813,487
6.814,492
6.815,492
6.816,494
6.817,500
6.818,501
6.819,497
6.82,495
6.821,496
6.822,497
6.823,498
6.824,507
6.825,526
6.826,529
6.827,523
6.828,527
6.829,531
6.83,527
6.831,519
6.832,505
6.833,494
6.834,493
6.835,487
6.836,491
6.837,497
6.838,499
6.839,495
6.84,489
6.841,485
6.842,486
6.843,487
6.844,487
6.845,490
6.846,489
6.847,491
6.848,496
6.849,500
6.85,502
6.851,504
6.852,509
6.853,518
6.854,519
6.855,523
6.856,520
6.857,509
6.858,503
6.859,500
6.86,496
6.861,497
6.862,501
6.863,504
6.864,527
6.865,527
6.866,499
6.867,483
6.868,489
6.869,502
6.87,505
6.871,509
6.872,510
6.873,510
6.874,512
6.875,504
6.876,497
6.877,499
6.878,506
6.879,520
6.88,533
6.881,535
6.882,536
6.883,540
6.884,543
6.885,548
6.886,551
6.887,561
6.888,573
6.889,591
6.89,604
6.891,619
6.892,630
6.893,645
6.894,666
6.895,681
6.896,691
6.897,707
6.898,728
6.899,748
6.9,767
6.901,792
6.902,817
6.903,833
6.904,842
6.905,850
6.906,848
6.907,825
6.908,805
6.909,806
6.91,807
6.911,802
6.912,781
6.913,756
6.914,725
6.915,687
6.916,641
6.917,593
6.918,542
6.919,490
6.92,440
6.921,392
6.922,347
6.923,313
6.924,294
6.925,291
6.926,293
6.927,284
6.928,268
6.929,262
6.93,258
6.931,257
6.932,267
6.933,280
6.934,289
6.935,293
6.936,300
6.937,309
6.938,319
6.939,323
6.94,329
6.941,334
6.942,345
6.943,363
6.944,380
6.945,395
6.946,409
6.947,423
6.948,434
6.949,439
6.95,451
6.951,469
6.952,483
6.953,497
6.954,505
6.955,509
6.956,512
6.957,506
6.958,513
6.959,530
6.96,539
6.961,527
6.962,512
6.963,509
6.964,510
6.965,515
6.966,520
6.967,519
6.968,519
6.969,530
6.97,531
6.971,527
6.972,530
6.973,523
6.974,518
6.975,523
6.976,527
6.977,530
6.978,528
6.979,529
6.98,534
6.981,538
6.982,539
6.983,541
6.984,535
6.985,534
6.986,535
6.987,533
6.988,540
6.989,544
6.99,545
6.991,538
6.992,531
6.993,530
6.994,536
6.995,539
6.996,539
6.997,538
6.998,534
6.999,534
7.0,538
7.001,542
7.002,545
7.003,547
7.004,553
7.005,556
7.006,549
7.007,541
7.008,538
7.009,535
7.01,534
7.011,529
7.012,523
7.013,524
7.014,535
7.015,545
7.016,553
7.017,552
7.018,546
7.019,543
7.02,545
7.021,551
7.022,549
7.023,541
7.024,536
7.025,537
7.026,544
7.027,547
7.028,549
7.029,547
7.03,551
7.031,558
7.032,556
7.033,552
7.034,549
7.035,543
7.036,542
7.037,551
7.038,561
7.039,559
7.04,552
7.041,551
7.042,550
7.043,555
7.044,561
7.045,565
7.046,565
7.047,561
7.048,561
7.049,560
7.05,561
7.051,558
7.052,550
7.053,549
7.054,557
7.055,560
7.056,558
7.057,561
7.058,563
7.059,567
7.06,572
7.061,574
7.062,570
7.063,567
7.064,561
7.065,552
7.066,551
7.067,548
7.068,542
7.069,541
7.07,542
7.071,545
7.072,545
7.073,545
7.074,550
7.075,554
7.076,553
7.077,559
7.078,563
7.079,565
7.08,560
7.081,557
7.082,555
7.083,555
7.084,558
7.085,563
7.086,564
7.087,567
7.088,564
7.089,555
7.09,548
7.091,547
7.092,556
7.093,552
7.094,547
7.095,549
7.096,545
7.097,548
7.098,555
7.099,558
7.1,563
7.101,567
7.102,570
7.103,567
7.104,565
7.105,568
7.106,569
7.107,573
7.108,574
7.109,580
7.11,579
7.111,580
7.112,583
7.113,585
7.114,580
7.115,579
7.116,576
7.117,569
7.118,566
7.119,562
7.12,560
7.121,566
7.122,572
7.123,575
7.124,571
7.125,572
7.126,577
7.127,579
7.128,575
7.129,570
7.13,572
7.131,569
7.132,566
7.133,567
7.134,569
7.135,566
7.136,565
7.137,568
7.138,572
7.139,568
7.14,565
7.141,562
7.142,563
7.143,568
7.144,566
7.145,563
7.146,563
7.147,562
7.148,563
7.149,560
7.15,550
7.151,541
7.152,538
7.153,536
7.154,535
7.155,533
7.156,524
7.157,516
7.158,519
7.159,529
7.16,544
7.161,552
7.162,538
7.163,521
7.164,512
7.165,510
7.166,504
7.167,503
7.168,501
7.169,495
7.17,490
7.171,485
7.172,481
7.173,483
7.174,492
7.175,497
7.176,504
7.177,502
7.178,497
7.179,495
7.18,497
7.181,503
7.182,503
7.183,493
7.184,481
7.185,474
7.186,473
7.187,470
7.188,467
7.189,466
7.19,468
7.191,470
7.192,479
7.193,482
7.194,477
7.195,478
7.196,472
7.197,469
7.198,471
7.199,472
7.2,469
7.201,463
7.202,459
7.203,462
7.204,462
7.205,465
7.206,471
7.207,473
7.208,472
7.209,473
7.21,476
7.211,476
7.212,470
7.213,468
7.214,476
7.215,475
7.216,467
7.217,463
7.218,467
7.219,472
7.22,476
7.221,479
7.222,483
7.223,488
7.224,503
7.225,505
7.226,493
7.227,477
7.228,474
7.229,475
7.23,477
7.231,478
7.232,474
7.233,467
7.234,465
7.235,471
7.236,479
7.237,480
7.238,475
7.239,468
7.24,463
7.241,467
7.242,475
7.243,479
7.244,485
7.245,489
7.246,489
7.247,484
7.248,483
7.249,476
7.25,476
7.251,477
7.252,480
7.253,480
7.254,479
7.255,479
7.256,476
7.257,472
7.258,478
7.259,483
7.26,487
7.261,488
7.262,485
7.263,480
7.264,479
7.265,484
7.266,484
7.267,488
7.268,490
7.269,489
7.27,487
7.271,483
7.272,479
7.273,473
7.274,478
7.275,491
7.276,497
7.277,493
7.278,482
7.279,480
7.28,480
7.281,484
7.282,489
7.283,489
7.284,492
7.285,491
7.286,483
7.287,483
7.288,489
7.289,496
7.29,495
7.291,488
7.292,492
7.293,492
7.294,484
7.295,477
7.296,480
7.297,482
7.298,490
7.299,498
7.3,492
7.301,486
7.302,484
7.303,486
7.304,486
7.305,492
7.306,497
7.307,499
7.308,502
7.309,498
7.31,497
7.311,500
7.312,502
7.313,502
7.314,503
7.315,497
7.316,492
7.317,493
7.318,496
7.319,499
7.32,496
7.321,488
7.322,490
7.323,489
7.324,483
7.325,480
7.326,483
7.327,490
7.328,499
7.329,501
7.33,499
7.331,497
7.332,497
7.333,500
7.334,501
7.335,505
7.336,507
7.337,506
7.338,507
7.339,509
7.34,512
7.341,511
7.342,504
7.343,497
7.344,490
7.345,483
7.346,484
7.347,489
7.348,494
7.349,499
7.35,504
7.351,502
7.352,495
7.353,485
7.354,480
7.355,485
7.356,494
7.357,503
7.358,498
7.359,478
7.36,475
7.361,476
7.362,483
7.363,494
7.364,493
7.365,489
7.366,487
7.367,499
7.368,502
7.369,496
7.37,495
7.371,492
7.372,490
7.373,492
7.374,490
7.375,488
7.376,489
7.377,491
7.378,492
7.379,493
7.38,492
7.381,495
7.382,495
7.383,491
7.384,486
7.385,483
7.386,488
7.387,500
7.388,502
7.389,501
7.39,496
7.391,497
7.392,497
7.393,491
7.394,493
7.395,497
7.396,495
7.397,496
7.398,494
7.399,493
7.4,492
7.401,491
7.402,489
7.403,487
7.404,485
7.405,488
7.406,488
7.407,487
7.408,492
7.409,492
7.41,494
7.411,500
7.412,505
7.413,502
7.414,503
7.415,505
7.416,502
7.417,502
7.418,504
7.419,501
7.42,496
7.421,497
7.422,500
7.423,499
7.424,497
7.425,498
7.426,496
7.427,498
7.428,497
7.429,499
7.43,503
7.431,499
7.432,492
7.433,486
7.434,483
7.435,489
7.436,495
7.437,503
7.438,505
7.439,505
7.44,506
7.441,512
7.442,520
7.443,529
7.444,531
7.445,523
7.446,525
7.447,532
7.448,534
7.449,531
7.45,530
7.451,528
7.452,523
7.453,510
7.454,496
7.455,506
7.456,515
7.457,519
7.458,512
7.459,500
7.46,496
7.461,499
7.462,497
7.463,491
7.464,496
7.465,503
7.466,509
7.467,506
7.468,508
7.469,509
7.47,499
7.471,495
7.472,491
7.473,493
7.474,491
7.475,490
7.476,492
7.477,493
7.478,488
7.479,480
7.48,479
7.481,482
7.482,487
7.483,492
7.484,495
7.485,496
7.486,495
7.487,493
7.488,494
7.489,493
7.49,494
7.491,492
7.492,491
7.493,491
7.494,493
7.495,496
7.496,498
7.497,506
7.498,507
7.499,507
7.5,509
7.501,510
7.502,498
7.503,492
7.504,494
7.505,494
7.506,499
7.507,504
7.508,500
7.509,493
7.51,486
7.511,486
7.512,491
7.513,488
7.514,487
7.515,489
7.516,489
7.517,491
7.518,493
7.519,496
7.52,502
7.521,508
7.522,511
7.523,514
7.524,511
7.525,498
7.526,494
7.527,494
7.528,496
7.529,499
7.53,504
7.531,506
7.532,507
7.533,501
7.534,497
7.535,497
7.536,500
7.537,503
7.538,500
7.539,495
7.54,493
7.541,500
7.542,512
7.543,529
7.544,531
7.545,518
7.546,498
7.547,495
7.548,499
7.549,502
7.55,499
7.551,494
7.552,488
7.553,483
7.554,483
7.555,486
7.556,489
7.557,495
7.558,506
7.559,521
7.56,534
7.561,552
7.562,566
7.563,584
7.564,605
7.565,632
7.566,654
7.567,675
7.568,696
7.569,710
7.57,718
7.571,728
7.572,745
7.573,764
7.574,780
7.575,793
7.576,805
7.577,814
7.578,824
7.579,836
7.58,851
7.581,856
7.582,848
7.583,833
7.584,812
7.585,788
7.586,760
7.587,730
7.588,695
7.589,648
7.59,595
7.591,541
7.592,487
7.593,435
7.594,386
7.595,350
7.596,321
7.597,307
7.598,293
7.599,275
7.6,256
7.601,245
7.602,249
7.603,254
7.604,257
7.605,260
7.606,263
7.607,269
7.608,278
7.609,284
7.61,291
7.611,305
7.612,322
7.613,341
7.614,358
7.615,364
7.616,368
7.617,376
7.618,391
7.619,407
7.62,423
7.621,439
7.622,446
7.623,453
7.624,467
7.625,477
7.626,487
7.627,495
7.628,499
7.629,495
7.63,493
7.631,499
7.632,507
7.633,510
7.634,508
7.635,509
7.636,512
7.637,512
7.638,521
7.639,535
7.64,545
7.641,540
7.642,527
7.643,507
7.644,495
7.645,492
7.646,509
7.647,528
7.648,523
7.649,522
7.65,522
7.651,526
7.652,532
7.653,535
7.654,536
7.655,531
7.656,525
7.657,526
7.658,530
7.659,529
7.66,528
7.661,528
7.662,527
7.663,526
7.664,523
7.665,518
7.666,518
7.667,523
7.668,529
7.669,536
7.67,542
7.671,539
7.672,537
7.673,535
7.674,532
7.675,534
7.676,536
7.677,537
7.678,537
7.679,537
7.68,539
7.681,540
7.682,538
7.683,537
7.684,539
7.685,535
7.686,536
7.687,540
7.688,540
7.689,536
7.69,536
7.691,536
7.692,532
7.693,531
7.694,533
7.695,539
7.696,544
7.697,548
7.698,547
7.699,539
7.7,532
7.701,528
7.702,524
7.703,526
7.704,531
7.705,531
7.706,531
7.707,536
7.708,538
7.709,531
7.71,534
7.711,539
7.712,533
7.713,534
7.714,539
7.715,539
7.716,541
7.717,542
7.718,547
7.719,548
7.72,550
7.721,547
7.722,546
7.723,548
7.724,548
7.725,548
7.726,547
7.727,549
7.728,541
7.729,528
7.73,528
7.731,524
7.732,525
7.733,532
7.734,542
7.735,556
7.736,558
7.737,551
7.738,549
7.739,555
7.74,558
7.741,548
7.742,543
7.743,546
7.744,548
7.745,551
7.746,549
7.747,552
7.748,558
7.749,566
7.75,570
7.751,570
7.752,565
7.753,558
7.754,551
7.755,550
7.756,550
7.757,556
7.758,560
7.759,558
7.76,559
7.761,556
7.762,554
7.763,552
7.764,554
7.765,561
7.766,565
7.767,564
7.768,568
7.769,572
7.77,574
7.771,575
7.772,572
7.773,576
7.774,584
7.775,585
7.776,585
7.777,576
7.778,575
7.779,582
7.78,581
7.781,572
7.782,572
7.783,581
7.784,595
7.785,598
7.786,593
7.787,592
7.788,585
7.789,583
7.79,588
7.791,591
7.792,592
7.793,595
7.794,591
7.795,588
7.796,585
7.797,583
7.798,580
7.799,575
7.8,572
7.801,573
7.802,579
7.803,587
7.804,592
7.805,600
7.806,602
7.807,598
7.808,592
7.809,589
7.81,589
7.811,590
7.812,590
7.813,582
7.814,571
7.815,567
7.816,570
7.817,574
7.818,574
7.819,572
7.82,567
7.821,559
7.822,557
7.823,557
7.824,557
7.825,564
7.826,566
7.827,560
7.828,548
7.829,546
7.83,541
7.831,533
7.832,526
7.833,527
7.834,528
7.835,522
7.836,516
7.837,510
7.838,512
7.839,512
7.84,515
7.841,515
7.842,513
7.843,514
7.844,516
7.845,516
7.846,512
7.847,513
7.848,511
7.849,502
7.85,496
7.851,492
7.852,491
7.853,487
7.854,485
7.855,488
7.856,495
7.857,496
7.858,490
7.859,481
7.86,480
7.861,484
7.862,489
7.863,486
7.864,479
7.865,473
7.866,469
7.867,467
7.868,468
7.869,466
7.87,458
7.871,461
7.872,467
7.873,471
7.874,467
7.875,466
7.876,464
7.877,465
7.878,467
7.879,472
7.88,476
7.881,476
7.882,477
7.883,480
7.884,479
7.885,474
7.886,473
7.887,476
7.888,478
7.889,478
7.89,474
7.891,468
7.892,468
7.893,467
7.894,468
7.895,474
7.896,482
7.897,480
7.898,477
7.899,480
7.9,479
7.901,481
7.902,487
7.903,489
7.904,488
7.905,482
7.906,478
7.907,478
7.908,474
7.909,476
7.91,479
7.911,476
7.912,473
7.913,474
7.914,483
7.915,491
7.916,491
7.917,494
7.918,502
7.919,510
7.92,511
7.921,490
7.922,481
7.923,481
7.924,486
7.925,487
7.926,484
7.927,481
7.928,479
7.929,481
7.93,484
7.931,490
7.932,496
7.933,489
7.934,480
7.935,481
7.936,487
7.937,493
7.938,503
7.939,503
7.94,498
7.941,495
7.942,494
7.943,489
7.944,497
7.945,495
7.946,487
7.947,487
7.948,481
7.949,472
7.95,471
7.951,475
7.952,479
7.953,485
7.954,490
7.955,491
7.956,493
7.957,494
7.958,494
7.959,495
7.96,500
7.961,503
7.962,504
7.963,500
7.964,491
7.965,487
7.966,487
7.967,488
7.968,492
7.969,500
7.97,506
7.971,506
7.972,509
7.973,513
7.974,510
7.975,509
7.976,508
7.977,508
7.978,508
7.979,512
7.98,512
7.981,510
7.982,506
7.983,506
7.984,508
7.985,512
7.986,511
7.987,507
7.988,505
7.989,502
7.99,499
7.991,501
7.992,504
7.993,500
7.994,503
7.995,504
7.996,508
7.997,510
7.998,513
7.999,514
8.0,509
8.001,504
8.002,500
8.003,504
8.004,508
8.005,507
8.006,511
8.007,519
8.008,519
8.009,517
8.01,517
8.011,509
8.012,505
8.013,508
8.014,505
8.015,505
8.016,505
8.017,506
8.018,507
8.019,507
8.02,511
8.021,515
8.022,516
8.023,510
8.024,511
8.025,511
8.026,505
8.027,501
8.028,502
8.029,511
8.03,515
8.031,515
8.032,512
8.033,509
8.034,506
8.035,503
8.036,504
8.037,503
8.038,501
8.039,501
8.04,502
8.041,505
8.042,510
8.043,512
8.044,512
8.045,508
8.046,510
8.047,513
8.048,519
8.049,522
8.05,531
8.051,534
8.052,529
8.053,524
8.054,515
8.055,503
8.056,489
8.057,496
8.058,504
8.059,508
8.06,502
8.061,503
8.062,510
8.063,514
8.064,517
8.065,512
8.066,506
8.067,505
8.068,510
8.069,516
8.07,517
8.071,515
8.072,514
8.073,518
8.074,522
8.075,528
8.076,528
8.077,524
8.078,525
8.079,527
8.08,527
8.081,535
8.082,542
8.083,543
8.084,543
8.085,536
8.086,532
8.087,531
8.088,532
8.089,532
8.09,535
8.091,537
8.092,537
8.093,540
8.094,538
8.095,535
8.096,535
8.097,533
8.098,530
8.099,527
8.1,523
8.101,517
8.102,514
8.103,519
8.104,519
8.105,525
8.106,527
8.107,528
8.108,531
8.109,523
8.11,518
8.111,517
8.112,514
8.113,508
8.114,503
8.115,497
8.116,493
8.117,492
8.118,489
8.119,490
8.12,492
8.121,490
8.122,489
8.123,489
8.124,493
8.125,491
8.126,489
8.127,490
8.128,489
8.129,494
8.13,502
8.131,504
8.132,508
8.133,513
8.134,517
8.135,520
8.136,520
8.137,519
8.138,516
8.139,515
8.14,513
8.141,511
8.142,506
8.143,507
8.144,506
8.145,506
8.146,510
8.147,510
8.148,507
8.149,501
8.15,498
8.151,491
8.152,496
8.153,510
8.154,514
8.155,506
8.156,498
8.157,494
8.158,498
8.159,501
8.16,502
8.161,499
8.162,502
8.163,504
8.164,504
8.165,502
8.166,499
8.167,499
8.168,494
8.169,494
8.17,496
8.171,493
8.172,487
8.173,491
8.174,502
8.175,504
8.176,499
8.177,496
8.178,495
8.179,499
8.18,503
8.181,511
8.182,515
8.183,517
8.184,521
8.185,524
8.186,521
8.187,522
8.188,525
8.189,525
8.19,524
8.191,520
8.192,516
8.193,519
8.194,519
8.195,522
8.196,526
8.197,529
8.198,529
8.199,534
8.2,551
8.201,570
8.202,583
8.203,596
8.204,613
8.205,634
8.206,655
8.207,672
8.208,691
8.209,707
8.21,721
8.211,725
8.212,738
8.213,760
8.214,778
8.215,791
8.216,803
8.217,809
8.218,810
8.219,807
8.22,803
8.221,795
8.222,777
8.223,756
8.224,738
8.225,719
8.226,688
8.227,648
8.228,603
8.229,551
8.23,498
8.231,451
8.232,409
8.233,368
8.234,328
8.235,297
8.236,276
8.237,260
8.238,248
8.239,242
8.24,240
8.241,246
8.242,253
8.243,260
8.244,268
8.245,268
8.246,268
8.247,276
8.248,287
8.249,297
8.25,312
8.251,323
8.252,335
8.253,348
8.254,361
8.255,379
8.256,395
8.257,405
8.258,418
8.259,433
8.26,446
8.261,456
8.262,466
8.263,474
8.264,483
8.265,481
8.266,481
8.267,487
8.268,491
8.269,486
8.27,486
8.271,485
8.272,494
8.273,500
8.274,514
8.275,516
8.276,510
8.277,518
8.278,532
8.279,526
8.28,514
8.281,509
8.282,513
8.283,521
8.284,524
8.285,526
8.286,521
8.287,515
8.288,515
8.289,514
8.29,519
8.291,522
8.292,524
8.293,524
8.294,519
8.295,522
8.296,524
8.297,523
8.298,524
8.299,524
8.3,524
8.301,527
8.302,526
8.303,526
8.304,524
8.305,521
8.306,519
8.307,519
8.308,521
8.309,519
8.31,515
8.311,513
8.312,512
8.313,510
8.314,513
8.315,519
8.316,519
8.317,515
8.318,514
8.319,521
8.32,528
8.321,527
8.322,525
8.323,523
8.324,527
8.325,532
8.326,535
8.327,537
8.328,531
8.329,521
8.33,519
8.331,525
8.332,531
8.333,528
8.334,524
8.335,527
8.336,531
8.337,536
8.338,538
8.339,538
8.34,537
8.341,537
8.342,538
8.343,536
8.344,534
8.345,531
8.346,534
8.347,531
8.348,528
8.349,536
8.35,534
8.351,543
8.352,541
8.353,532
8.354,521
8.355,513
8.356,512
8.357,516
8.358,517
8.359,520
8.36,521
8.361,525
8.362,531
8.363,541
8.364,549
8.365,544
8.366,532
8.367,532
8.368,536
8.369,536
8.37,534
8.371,536
8.372,540
8.373,541
8.374,542
8.375,541
8.376,535
8.377,529
8.378,527
8.379,528
8.38,534
8.381,543
8.382,544
8.383,540
8.384,532
8.385,527
8.386,526
8.387,527
8.388,527
8.389,534
8.39,540
8.391,544
8.392,547
8.393,548
8.394,553
8.395,556
8.396,554
8.397,553
8.398,551
8.399,544
8.4,542
8.401,544
8.402,547
8.403,544
8.404,543
8.405,552
8.406,555
8.407,553
8.408,553
8.409,553
8.41,553
8.411,555
8.412,560
8.413,557
8.414,553
8.415,556
8.416,561
8.417,565
8.418,571
8.419,573
8.42,575
8.421,574
8.422,573
8.423,572
8.424,573
8.425,580
8.426,585
8.427,583
8.428,572
8.429,568
8.43,570
8.431,571
8.432,569
8.433,571
8.434,573
8.435,572
8.436,568
8.437,562
8.438,576
8.439,583
8.44,577
8.441,561
8.442,561
8.443,566
8.444,567
8.445,562
8.446,556
8.447,558
8.448,553
8.449,549
8.45,556
8.451,561
8.452,566
8.453,563
8.454,556
8.455,550
8.456,549
8.457,543
8.458,536
8.459,530
8.46,531
8.461,530
8.462,532
8.463,532
8.464,526
8.465,519
8.466,521
8.467,528
8.468,534
8.469,527
8.47,520
8.471,513
8.472,508
8.473,508
8.474,508
8.475,511
8.476,509
8.477,505
8.478,499
8.479,491
8.48,484
8.481,482
8.482,483
8.483,482
8.484,483
8.485,481
8.486,481
8.487,480
8.488,481
8.489,483
8.49,475
8.491,465
8.492,461
8.493,456
8.494,458
8.495,460
8.496,466
8.497,468
8.498,467
8.499,469
8.5,466
8.501,463
8.502,461
8.503,460
8.504,461
8.505,458
8.506,456
8.507,457
8.508,457
8.509,454
8.51,452
8.511,452
8.512,461
8.513,471
8.514,469
8.515,467
8.516,465
8.517,467
8.518,465
8.519,472
8.52,472
8.521,465
8.522,455
8.523,451
8.524,461
8.525,472
8.526,471
8.527,458
8.528,452
8.529,455
8.53,459
8.531,463
8.532,466
8.533,471
8.534,475
8.535,478
8.536,477
8.537,476
8.538,475
8.539,481
8.54,484
8.541,484
8.542,472
8.543,462
8.544,458
8.545,461
8.546,468
8.547,472
8.548,473
8.549,472
8.55,474
8.551,485
8.552,482
8.553,481
8.554,483
8.555,465
8.556,450
8.557,455
8.558,464
8.559,465
8.56,463
8.561,463
8.562,471
8.563,473
8.564,470
8.565,461
8.566,460
8.567,460
8.568,464
8.569,466
8.57,469
8.571,472
8.572,472
8.573,473
8.574,473
8.575,476
8.576,479
8.577,480
8.578,483
8.579,480
8.58,478
8.581,481
8.582,478
8.583,479
8.584,483
8.585,490
8.586,492
8.587,490
8.588,488
8.589,492
8.59,487
8.591,483
8.592,487
8.593,491
8.594,483
8.595,480
8.596,482
8.597,487
8.598,496
8.599,498
8.6,500
8.601,500
8.602,498
8.603,497
8.604,495
8.605,496
8.606,495
8.607,495
8.608,499
8.609,500
8.61,499
8.611,499
8.612,502
8.613,500
8.614,498
8.615,500
8.616,503
8.617,502
8.618,499
8.619,502
8.62,505
8.621,504
8.622,504
8.623,497
8.624,496
8.625,490
8.626,488
8.627,485
8.628,486
8.629,496
8.63,508
8.631,519
8.632,518
8.633,497
8.634,487
8.635,492
8.636,498
8.637,504
8.638,500
8.639,499
8.64,508
8.641,518
8.642,515
8.643,501
8.644,497
8.645,501
8.646,505
8.647,511
8.648,513
8.649,507
8.65,503
8.651,499
8.652,504
8.653,508
8.654,509
8.655,505
8.656,505
8.657,504
8.658,506
8.659,503
8.66,503
8.661,504
8.662,499
8.663,492
8.664,483
8.665,475
8.666,472
8.667,471
8.668,469
8.669,478
8.67,488
8.671,500
8.672,506
8.673,506
8.674,504
8.675,503
8.676,501
8.677,499
8.678,502
8.679,504
8.68,508
8.681,504
8.682,503
8.683,500
8.684,496
8.685,499
8.686,500
8.687,498
8.688,499
8.689,499
8.69,499
8.691,503
8.692,508
8.693,511
8.694,514
8.695,516
8.696,515
8.697,516
8.698,516
8.699,512
8.7,512
8.701,515
8.702,518
8.703,515
8.704,513
8.705,515
8.706,515
8.707,517
8.708,512
8.709,514
8.71,519
8.711,525
8.712,528
8.713,524
8.714,523
8.715,524
8.716,527
8.717,524
8.718,518
8.719,521
8.72,527
8.721,528
8.722,529
8.723,522
8.724,513
8.725,509
8.726,509
8.727,508
8.728,504
8.729,500
8.73,496
8.731,496
8.732,504
8.733,509
8.734,510
8.735,510
8.736,504
8.737,498
8.738,495
8.739,495
8.74,502
8.741,504
8.742,487
8.743,483
8.744,485
8.745,487
8.746,488
8.747,487
8.748,483
8.749,479
8.75,478
8.751,484
8.752,488
8.753,494
8.754,498
8.755,504
8.756,504
8.757,500
8.758,494
8.759,489
8.76,484
8.761,486
8.762,489
8.763,492
8.764,491
8.765,489
8.766,483
8.767,481
8.768,481
8.769,479
8.77,480
8.771,482
8.772,482
8.773,483
8.774,489
8.775,494
8.776,496
8.777,496
8.778,497
8.779,499
8.78,496
8.781,494
8.782,491
8.783,491
8.784,496
8.785,495
8.786,495
8.787,495
8.788,499
8.789,500
8.79,498
8.791,497
8.792,497
8.793,499
8.794,503
8.795,510
8.796,508
8.797,502
8.798,499
8.799,499
8.8,501
8.801,500
8.802,502
8.803,504
8.804,504
8.805,504
8.806,504
8.807,504
8.808,504
8.809,505
8.81,503
8.811,499
8.812,500
8.813,504
8.814,503
8.815,506
8.816,514
8.817,520
8.818,527
8.819,533
8.82,540
8.821,544
8.822,551
8.823,559
8.824,572
8.825,588
8.826,601
8.827,616
8.828,636
8.829,659
8.83,678
8.831,695
8.832,711
8.833,725
8.834,734
8.835,742
8.836,749
8.837,753
8.838,764
8.839,777
8.84,783
8.841,779
8.842,772
8.843,760
8.844,745
8.845,727
8.846,706
8.847,683
8.848,652
8.849,610
8.85,564
8.851,524
8.852,484
8.853,449
8.854,407
8.855,367
8.856,328
8.857,300
8.858,286
8.859,276
8.86,268
8.861,263
8.862,264
8.863,255
8.864,250
8.865,249
8.866,253
8.867,259
8.868,270
8.869,275
8.87,280
8.871,292
8.872,307
8.873,322
8.874,329
8.875,334
8.876,346
8.877,364
8.878,381
8.879,398
8.88,408
8.881,422
8.882,431
8.883,444
8.884,462
8.885,469
8.886,476
8.887,481
8.888,479
8.889,483
8.89,491
8.891,490
8.892,496
8.893,504
8.894,511
8.895,514
8.896,512
8.897,508
8.898,508
8.899,511
8.9,517
8.901,519
8.902,525
8.903,524
8.904,515
8.905,510
8.906,513
8.907,516
8.908,524
8.909,519
8.91,512
8.911,512
8.912,501
8.913,497
8.914,499
8.915,501
8.916,502
8.917,511
8.918,518
8.919,519
8.92,519
8.921,521
8.922,522
8.923,521
8.924,516
8.925,515
8.926,516
8.927,512
8.928,510
8.929,511
8.93,513
8.931,512
8.932,512
8.933,512
8.934,520
8.935,521
8.936,516
8.937,518
8.938,517
8.939,519
8.94,519
8.941,517
8.942,519
8.943,529
8.944,533
8.945,530
8.946,527
8.947,521
8.948,520
8.949,524
8.95,527
8.951,528
8.952,529
8.953,529
8.954,528
8.955,524
8.956,526
8.957,512
8.958,508
8.959,515
8.96,511
8.961,514
8.962,524
8.963,529
8.964,531
8.965,527
8.966,519
8.967,517
8.968,519
8.969,527
8.97,531
8.971,532
8.972,534
8.973,533
8.974,533
8.975,534
8.976,533
8.977,535
8.978,534
8.979,529
8.98,529
8.981,527
8.982,527
8.983,527
8.984,529
8.985,530
8.986,532
8.987,532
8.988,531
8.989,526
8.99,525
8.991,526
8.992,522
8.993,520
8.994,521
8.995,519
8.996,516
8.997,520
8.998,525
8.999,530
9.0,535
9.001,536
9.002,523
9.003,516
9.004,515
9.005,518
9.006,523
9.007,522
9.008,522
9.009,525
9.01,529
9.011,527
9.012,522
9.013,524
9.014,527
9.015,526
9.016,528
9.017,528
9.018,524
9.019,522
9.02,525
9.021,525
9.022,527
9.023,535
9.024,544
9.025,548
9.026,544
9.027,542
9.028,540
9.029,542
9.03,544
9.031,545
9.032,544
9.033,545
9.034,547
9.035,543
9.036,539
9.037,540
9.038,539
9.039,545
9.04,558
9.041,562
9.042,561
9.043,569
9.044,573
9.045,571
9.046,573
9.047,570
9.048,567
9.049,568
9.05,565
9.051,562
9.052,560
9.053,565
9.054,565
9.055,564
9.056,568
9.057,567
9.058,562
9.059,552
9.06,551
9.061,546
9.062,541
9.063,544
9.064,551
9.065,559
9.066,561
9.067,556
9.068,557
9.069,568
9.07,563
9.071,558
9.072,552
9.073,544
9.074,537
9.075,537
9.076,538
9.077,534
9.078,534
9.079,530
9.08,536
9.081,541
9.082,545
9.083,543
9.084,535
9.085,525
9.086,522
9.087,520
9.088,518
9.089,520
9.09,527
9.091,526
9.092,517
9.093,508
9.094,499
9.095,494
9.096,486
9.097,484
9.098,489
9.099,491
9.1,489
9.101,490
9.102,488
9.103,484
9.104,480
9.105,471
9.106,470
9.107,465
9.108,458
9.109,457
9.11,463
9.111,475
9.112,479
9.113,477
9.114,476
9.115,478
9.116,476
9.117,472
9.118,467
9.119,465
9.12,468
9.121,458
9.122,444
9.123,441
9.124,441
9.125,438
9.126,435
9.127,438
9.128,442
9.129,450
9.13,456
9.131,460
9.132,459
9.133,449
9.134,439
9.135,445
9.136,449
9.137,451
9.138,455
9.139,455
9.14,456
9.141,459
9.142,464
9.143,457
9.144,451
9.145,451
9.146,454
9.147,454
9.148,447
9.149,447
9.15,450
9.151,456
9.152,456
9.153,448
9.154,444
9.155,449
9.156,450
9.157,449
9.158,453
9.159,458
9.16,456
9.161,455
9.162,456
9.163,462
9.164,463
9.165,463
9.166,462
9.167,463
9.168,462
9.169,462
9.17,463
9.171,465
9.172,469
9.173,465
9.174,459
9.175,453
9.176,457
9.177,462
9.178,460
9.179,463
9.18,466
9.181,461
9.182,455
9.183,453
9.184,448
9.185,447
9.186,449
9.187,451
9.188,456
9.189,468
9.19,478
9.191,486
9.192,487
9.193,467
9.194,456
9.195,465
9.196,470
9.197,471
9.198,469
9.199,467
9.2,465
9.201,470
9.202,473
9.203,479
9.204,485
9.205,485
9.206,484
9.207,491
9.208,487
9.209,480
9.21,480
9.211,478
9.212,478
9.213,477
9.214,476
9.215,476
9.216,474
9.217,470
9.218,472
9.219,482
9.22,487
9.221,484
9.222,478
9.223,476
9.224,473
9.225,472
9.226,480
9.227,495
9.228,495
9.229,491
9.23,488
9.231,494
9.232,498
9.233,499
9.234,496
9.235,491
9.236,490
9.237,490
9.238,495
9.239,497
9.24,500
9.241,502
9.242,505
9.243,505
9.244,506
9.245,503
9.246,497
9.247,496
9.248,500
9.249,502
9.25,502
9.251,503
9.252,508
9.253,510
9.254,504
9.255,500
9.256,498
9.257,497
9.258,494
9.259,498
9.26,502
9.261,499
9.262,496
9.263,496
9.264,501
9.265,506
9.266,513
9.267,512
9.268,507
9.269,503
9.27,498
9.271,497
9.272,497
9.273,503
9.274,507
9.275,501
9.276,498
9.277,492
9.278,489
9.279,489
9.28,492
9.281,494
9.282,492
9.283,496
9.284,496
9.285,502
9.286,502
9.287,499
9.288,503
9.289,512
9.29,524
9.291,528
9.292,524
9.293,517
9.294,509
9.295,500
9.296,493
9.297,494
9.298,489
9.299,486
9.3,488
9.301,491
9.302,491
9.303,492
9.304,502
9.305,504
9.306,504
9.307,506
9.308,499
9.309,500
9.31,499
9.311,499
9.312,505
9.313,510
9.314,507
9.315,507
9.316,505
9.317,503
9.318,503
9.319,507
9.32,510
9.321,511
9.322,513
9.323,514
9.324,511
9.325,507
9.326,509
9.327,515
9.328,518
9.329,519
9.33,518
9.331,520
9.332,525
9.333,526
9.334,524
9.335,523
9.336,523
9.337,526
9.338,527
9.339,522
9.34,519
9.341,516
9.342,511
9.343,510
9.344,515
9.345,520
9.346,520
9.347,520
9.348,516
9.349,514
9.35,513
9.351,515
9.352,515
9.353,513
9.354,515
9.355,514
9.356,512
9.357,510
9.358,503
9.359,497
9.36,500
9.361,499
9.362,489
9.363,487
9.364,492
9.365,494
9.366,497
9.367,504
9.368,508
9.369,506
9.37,504
9.371,492
9.372,485
9.373,483
9.374,485
9.375,483
9.376,482
9.377,478
9.378,473
9.379,466
9.38,472
9.381,477
9.382,483
9.383,483
9.384,484
9.385,486
9.386,483
9.387,481
9.388,481
9.389,483
9.39,493
9.391,509
9.392,511
9.393,496
9.394,484
9.395,481
9.396,483
9.397,488
9.398,492
9.399,495
9.4,489
9.401,486
9.402,490
9.403,491
9.404,489
9.405,487
9.406,488
9.407,494
9.408,494
9.409,493
9.41,495
9.411,496
9.412,493
9.413,491
9.414,492
9.415,496
9.416,498
9.417,501
9.418,499
9.419,494
9.42,496
9.421,499
9.422,504
9.423,504
9.424,495
9.425,490
9.426,487
9.427,491
9.428,495
9.429,497
9.43,499
9.431,502
9.432,503
9.433,503
9.434,504
9.435,506
9.436,507
9.437,511
9.438,511
9.439,511
9.44,508
9.441,503
9.442,502
9.443,504
9.444,510
9.445,515
9.446,517
9.447,527
9.448,544
9.449,559
9.45,567
9.451,573
9.452,577
9.453,589
9.454,600
9.455,615
9.456,635
9.457,662
9.458,686
9.459,701
9.46,716
9.461,728
9.462,737
9.463,748
9.464,755
9.465,770
9.466,788
9.467,800
9.468,804
9.469,796
9.47,780
9.471,766
9.472,751
9.473,735
9.474,716
9.475,696
9.476,669
9.477,636
9.478,593
9.479,551
9.48,495
9.481,443
9.482,394
9.483,356
9.484,330
9.485,309
9.486,296
9.487,286
9.488,279
9.489,278
9.49,280
9.491,276
9.492,276
9.493,281
9.494,284
9.495,287
9.496,291
9.497,295
9.498,301
9.499,310
9.5,322
9.501,334
9.502,347
9.503,361
9.504,372
9.505,378
9.506,388
9.507,400
9.508,406
9.509,418
9.51,430
9.511,438
9.512,448
9.513,452
9.514,456
9.515,462
9.516,470
9.517,479
9.518,485
9.519,492
9.52,496
9.521,495
9.522,495
9.523,495
9.524,492
9.525,487
9.526,489
9.527,489
9.528,492
9.529,494
9.53,497
9.531,502
9.532,501
9.533,497
9.534,489
9.535,486
9.536,487
9.537,486
9.538,479
9.539,472
9.54,468
9.541,478
9.542,493
9.543,497
9.544,496
9.545,498
9.546,502
9.547,508
9.548,526
9.549,531
9.55,520
9.551,508
9.552,504
9.553,504
9.554,495
9.555,497
9.556,499
9.557,503
9.558,504
9.559,499
9.56,504
9.561,506
9.562,499
9.563,496
9.564,504
9.565,514
9.566,518
9.567,516
9.568,510
9.569,507
9.57,504
9.571,500
9.572,497
9.573,500
9.574,506
9.575,516
9.576,519
9.577,519
9.578,513
9.579,502
9.58,498
9.581,497
9.582,497
9.583,503
9.584,510
9.585,513
9.586,511
9.587,510
9.588,506
9.589,505
9.59,507
9.591,506
9.592,505
9.593,509
9.594,512
9.595,512
9.596,510
9.597,509
9.598,508
9.599,505
9.6,509
9.601,512
9.602,513
9.603,512
9.604,507
9.605,503
9.606,503
9.607,503
9.608,505
9.609,502
9.61,499
9.611,503
9.612,508
9.613,511
9.614,515
9.615,518
9.616,518
9.617,519
9.618,519
9.619,520
9.62,515
9.621,514
9.622,513
9.623,509
9.624,504
9.625,499
9.626,495
9.627,498
9.628,506
9.629,514
9.63,525
9.631,534
9.632,527
9.633,521
9.634,518
9.635,513
9.636,524
9.637,528
9.638,516
9.639,511
9.64,513
9.641,517
9.642,514
9.643,508
9.644,507
9.645,513
9.646,518
9.647,522
9.648,523
9.649,521
9.65,522
9.651,525
9.652,526
9.653,529
9.654,528
9.655,531
9.656,531
9.657,532
9.658,536
9.659,531
9.66,524
9.661,519
9.662,514
9.663,509
9.664,515
9.665,521
9.666,524
9.667,523
9.668,524
9.669,527
9.67,528
9.671,528
9.672,524
9.673,523
9.674,527
9.675,531
9.676,533
9.677,535
9.678,536
9.679,539
9.68,542
9.681,542
9.682,541
9.683,543
9.684,546
9.685,547
9.686,545
9.687,544
9.688,543
9.689,542
9.69,543
9.691,543
9.692,543
9.693,542
9.694,539
9.695,533
9.696,529
9.697,529
9.698,532
9.699,541
9.7,545
9.701,547
9.702,547
9.703,546
9.704,544
9.705,541
9.706,542
9.707,543
9.708,541
9.709,537
9.71,535
9.711,535
9.712,532
9.713,532
9.714,528
9.715,526
9.716,526
9.717,526
9.718,527
9.719,532
9.72,527
9.721,520
9.722,513
9.723,508
9.724,500
9.725,497
9.726,503
9.727,508
9.728,516
9.729,505
9.73,492
9.731,490
9.732,496
9.733,502
9.734,499
9.735,490
9.736,483
9.737,482
9.738,476
9.739,466
9.74,456
9.741,460
9.742,475
9.743,476
9.744,477
9.745,479
9.746,481
9.747,483
9.748,492
9.749,499
9.75,504
9.751,494
9.752,480
9.753,469
9.754,460
9.755,453
9.756,450
9.757,450
9.758,455
9.759,460
9.76,465
9.761,465
9.762,463
9.763,461
9.764,464
9.765,465
9.766,467
9.767,470
9.768,471
9.769,471
9.77,473
9.771,473
9.772,473
9.773,474
9.774,471
9.775,473
9.776,474
9.777,473
9.778,477
9.779,478
9.78,475
9.781,472
9.782,472
9.783,472
9.784,474
9.785,474
9.786,473
9.787,474
9.788,477
9.789,475
9.79,477
9.791,481
9.792,483
9.793,483
9.794,480
9.795,476
9.796,474
9.797,475
9.798,479
9.799,480
9.8,482
9.801,483
9.802,481
9.803,479
9.804,479
9.805,478
9.806,479
9.807,488
9.808,490
9.809,484
9.81,480
9.811,484
9.812,487
9.813,490
9.814,494
9.815,491
9.816,487
9.817,483
9.818,486
9.819,486
9.82,481
9.821,475
9.822,480
9.823,481
9.824,483
9.825,485
9.826,491
9.827,499
9.828,504
9.829,503
9.83,495
9.831,489
9.832,483
9.833,481
9.834,491
9.835,502
9.836,505
9.837,504
9.838,488
9.839,476
9.84,475
9.841,472
9.842,467
9.843,466
9.844,467
9.845,471
9.846,475
9.847,483
9.848,491
9.849,493
9.85,490
9.851,488
9.852,486
9.853,483
9.854,483
9.855,483
9.856,484
9.857,488
9.858,490
9.859,488
9.86,493
9.861,492
9.862,494
9.863,496
9.864,499
9.865,495
9.866,492
9.867,492
9.868,492
9.869,493
9.87,491
9.871,494
9.872,495
9.873,492
9.874,492
9.875,496
9.876,498
9.877,494
9.878,489
9.879,489
9.88,491
9.881,494
9.882,495
9.883,498
9.884,497
9.885,493
9.886,493
9.887,498
9.888,502
9.889,499
9.89,497
9.891,495
9.892,495
9.893,497
9.894,498
9.895,501
9.896,505
9.897,505
9.898,501
9.899,500
9.9,499
9.901,493
9.902,491
9.903,496
9.904,501
9.905,511
9.906,516
9.907,513
9.908,505
9.909,504
9.91,510
9.911,512
9.912,515
9.913,514
9.914,509
9.915,500
9.916,496
9.917,498
9.918,501
9.919,503
9.92,507
9.921,515
9.922,515
9.923,513
9.924,513
9.925,515
9.926,517
9.927,516
9.928,512
9.929,510
9.93,500
9.931,490
9.932,490
9.933,494
9.934,502
9.935,510
9.936,517
9.937,515
9.938,504
9.939,494
9.94,488
9.941,486
9.942,487
9.943,485
9.944,491
9.945,497
9.946,497
9.947,499
9.948,497
9.949,496
9.95,502
9.951,506
9.952,511
9.953,512
9.954,510
9.955,510
9.956,508
9.957,507
9.958,515
9.959,522
9.96,524
9.961,524
9.962,517
9.963,516
9.964,514
9.965,510
9.966,510
9.967,519
9.968,524
9.969,526
9.97,528
9.971,523
9.972,512
9.973,510
9.974,512
9.975,515
9.976,522
9.977,530
9.978,526
9.979,517
9.98,511
9.981,510
9.982,514
9.983,517
9.984,515
9.985,514
9.986,509
9.987,503
9.988,501
9.989,497
9.99,494
9.991,491
9.992,491
9.993,495
9.994,496
9.995,495
9.996,499
9.997,499
9.998,498
9.999,497
10.0,496
10.001,488
10.002,482
10.003,483
10.004,488
10.005,492
10.006,492
10.007,494
10.008,495
10.009,493
10.01,491
10.011,490
10.012,489
10.013,492
10.014,496
10.015,497
10.016,490
10.017,487
10.018,489
10.019,489
10.02,488
10.021,487
10.022,485
10.023,484
10.024,485
10.025,486
10.026,487
10.027,488
10.028,490
10.029,490
10.03,492
10.031,492
10.032,492
10.033,488
10.034,487
10.035,486
10.036,492
10.037,495
10.038,489
10.039,486
10.04,480
10.041,473
10.042,473
10.043,477
10.044,480
10.045,481
10.046,482
10.047,486
10.048,489
10.049,491
10.05,493
10.051,491
10.052,487
10.053,486
10.054,483
10.055,483
10.056,481
10.057,486
10.058,487
10.059,481
10.06,481
10.061,486
10.062,493
10.063,502
10.064,504
10.065,499
10.066,496
10.067,496
10.068,494
10.069,488
10.07,485
10.071,483
10.072,484
10.073,484
10.074,490
10.075,499
10.076,507
10.077,515
10.078,524
10.079,536
10.08,548
10.081,561
10.082,577
10.083,593
10.084,611
10.085,630
10.086,647
10.087,664
10.088,680
10.089,696
10.09,713
10.091,729
10.092,746
10.093,763
10.094,777
10.095,788
10.096,801
10.097,810
10.098,812
10.099,808
10.1,800
10.101,785
10.102,765
10.103,745
10.104,726
10.105,695
10.106,657
10.107,623
10.108,587
10.109,545
10.11,498
10.111,449
10.112,405
10.113,371
10.114,344
10.115,327
10.116,314
10.117,304
10.118,295
10.119,288
10.12,285
10.121,291
10.122,295
10.123,298
10.124,300
10.125,304
10.126,305
10.127,307
10.128,315
10.129,324
10.13,333
10.131,344
10.132,353
10.133,362
10.134,375
10.135,384
10.136,388
10.137,396
10.138,406
10.139,413
10.14,420
10.141,432
10.142,441
10.143,447
10.144,452
10.145,460
10.146,467
10.147,474
10.148,479
10.149,475
10.15,476
10.151,482
10.152,494
10.153,497
10.154,483
10.155,470
10.156,473
10.157,477
10.158,481
10.159,483
10.16,484
10.161,486
10.162,485
10.163,485
10.164,484
10.165,484
10.166,483
10.167,485
10.168,492
10.169,495
10.17,496
10.171,496
10.172,492
10.173,484
10.174,476
10.175,477
10.176,481
10.177,487
10.178,492
10.179,492
10.18,483
10.181,481
10.182,479
10.183,490
10.184,501
10.185,505
10.186,504
10.187,498
10.188,493
10.189,489
10.19,488
10.191,496
10.192,509
10.193,516
10.194,513
10.195,504
10.196,499
10.197,497
10.198,501
10.199,497
10.2,497
10.201,495
10.202,504
10.203,506
10.204,504
10.205,507
10.206,510
10.207,507
10.208,504
10.209,504
10.21,507
10.211,508
10.212,502
10.213,507
10.214,514
10.215,520
10.216,525
10.217,524
10.218,514
10.219,505
10.22,499
10.221,496
10.222,496
10.223,498
10.224,498
10.225,496
10.226,495
10.227,493
10.228,497
10.229,498
10.23,501
10.231,497
10.232,494
10.233,501
10.234,508
10.235,511
10.236,507
10.237,505
10.238,503
10.239,511
10.24,516
10.241,511
10.242,508
10.243,504
10.244,500
10.245,502
10.246,498
10.247,497
10.248,498
10.249,496
10.25,496
10.251,500
10.252,506
10.253,509
10.254,522
10.255,528
10.256,531
10.257,531
10.258,525
10.259,517
10.26,502
10.261,497
10.262,501
10.263,502
10.264,504
10.265,505
10.266,502
10.267,504
10.268,511
10.269,515
10.27,512
10.271,507
10.272,502
10.273,504
10.274,516
10.275,518
10.276,513
10.277,519
10.278,523
10.279,524
10.28,519
10.281,511
10.282,508
10.283,508
10.284,511
10.285,515
10.286,516
10.287,513
10.288,518
10.289,524
10.29,529
10.291,529
10.292,528
10.293,531
10.294,532
10.295,534
10.296,533
10.297,539
10.298,536
10.299,536
10.3,532
10.301,531
10.302,532
10.303,535
10.304,542
10.305,549
10.306,551
10.307,548
10.308,545
10.309,544
10.31,542
10.311,543
10.312,549
10.313,548
10.314,546
10.315,546
10.316,540
10.317,531
10.318,523
10.319,514
10.32,515
10.321,529
10.322,542
10.323,547
10.324,552
10.325,553
10.326,554
10.327,549
10.328,540
10.329,536
10.33,535
10.331,531
10.332,534
10.333,538
10.334,540
10.335,536
10.336,535
10.337,534
10.338,532
10.339,529
10.34,528
10.341,529
10.342,527
10.343,525
10.344,524
10.345,524
10.346,521
10.347,515
10.348,512
10.349,506
10.35,503
10.351,500
10.352,498
10.353,499
10.354,503
10.355,502
10.356,502
10.357,503
10.358,502
10.359,496
10.36,489
10.361,484
10.362,478
10.363,479
10.364,480
10.365,479
10.366,476
10.367,472
10.368,469
10.369,472
10.37,473
10.371,472
10.372,466
10.373,461
10.374,457
10.375,459
10.376,458
10.377,458
10.378,466
10.379,469
10.38,469
10.381,470
10.382,466
10.383,456
10.384,447
10.385,449
10.386,459
10.387,464
10.388,465
10.389,465
10.39,462
10.391,463
10.392,463
10.393,458
10.394,460
10.395,456
10.396,453
10.397,453
10.398,455
10.399,454
10.4,455
10.401,456
10.402,455
10.403,454
10.404,455
10.405,457
10.406,465
10.407,462
10.408,457
10.409,460
10.41,468
10.411,467
10.412,459
10.413,460
10.414,470
10.415,476
10.416,476
10.417,476
10.418,471
10.419,464
10.42,460
10.421,463
10.422,465
10.423,463
10.424,462
10.425,459
10.426,460
10.427,462
10.428,463
10.429,463
10.43,465
10.431,469
10.432,471
10.433,466
10.434,464
10.435,464
10.436,467
10.437,470
10.438,471
10.439,470
10.44,470
10.441,468
10.442,472
10.443,476
10.444,473
10.445,470
10.446,470
10.447,474
10.448,480
10.449,487
10.45,487
10.451,475
10.452,459
10.453,451
10.454,459
10.455,462
10.456,462
10.457,463
10.458,470
10.459,473
10.46,471
10.461,473
10.462,473
10.463,471
10.464,471
10.465,472
10.466,474
10.467,478
10.468,478
10.469,478
10.47,475
10.471,472
10.472,473
10.473,475
10.474,473
10.475,478
10.476,480
10.477,481
10.478,484
10.479,485
10.48,480
10.481,479
10.482,479
10.483,482
10.484,484
10.485,483
10.486,486
10.487,489
10.488,484
10.489,489
10.49,485
10.491,479
10.492,479
10.493,480
10.494,484
10.495,491
10.496,493
10.497,492
10.498,492
10.499,495
10.5,493
10.501,490
10.502,484
10.503,483
10.504,483
10.505,481
10.506,479
10.507,480
10.508,480
10.509,476
10.51,473
10.511,473
10.512,480
10.513,479
10.514,469
10.515,465
10.516,470
10.517,477
10.518,484
10.519,488
10.52,487
10.521,484
10.522,484
10.523,487
10.524,487
10.525,492
10.526,489
10.527,476
10.528,473
10.529,479
10.53,485
10.531,491
10.532,492
10.533,490
10.534,486
10.535,486
10.536,496
10.537,499
10.538,498
10.539,494
10.54,490
10.541,487
10.542,487
10.543,490
10.544,492
10.545,489
10.546,487
10.547,493
10.548,489
10.549,490
10.55,492
10.551,495
10.552,496
10.553,495
10.554,497
10.555,493
10.556,486
10.557,481
10.558,480
10.559,483
10.56,487
10.561,478
10.562,472
10.563,477
10.564,483
10.565,489
10.566,492
10.567,487
10.568,486
10.569,491
10.57,492
10.571,493
10.572,495
10.573,499
10.574,494
10.575,492
10.576,493
10.577,496
10.578,495
10.579,494
10.58,495
10.581,496
10.582,495
10.583,496
10.584,496
10.585,496
10.586,497
10.587,497
10.588,495
10.589,493
10.59,489
10.591,487
10.592,492
10.593,492
10.594,492
10.595,494
10.596,495
10.597,500
10.598,497
10.599,497
10.6,496
10.601,493
10.602,496
10.603,500
10.604,504
10.605,502
10.606,492
10.607,487
10.608,487
10.609,484
10.61,483
10.611,485
10.612,486
10.613,487
10.614,494
10.615,497
10.616,501
10.617,494
10.618,486
10.619,489
10.62,499
10.621,498
10.622,488
10.623,490
10.624,492
10.625,493
10.626,497
10.627,499
10.628,502
10.629,504
10.63,505
10.631,503
10.632,505
10.633,508
10.634,512
10.635,513
10.636,516
10.637,519
10.638,517
10.639,516
10.64,519
10.641,523
10.642,524
10.643,523
10.644,520
10.645,511
10.646,508
10.647,513
10.648,518
10.649,516
10.65,513
10.651,509
10.652,505
10.653,504
10.654,505
10.655,502
10.656,498
10.657,497
10.658,502
10.659,505
10.66,499
10.661,495
10.662,492
10.663,489
10.664,491
10.665,492
10.666,496
10.667,491
10.668,487
10.669,481
10.67,480
10.671,479
10.672,472
10.673,466
10.674,464
10.675,470
10.676,473
10.677,473
10.678,476
10.679,479
10.68,481
10.681,482
10.682,475
10.683,471
10.684,470
10.685,472
10.686,476
10.687,480
10.688,483
10.689,482
10.69,476
10.691,472
10.692,471
10.693,480
10.694,487
10.695,491
10.696,491
10.697,491
10.698,486
10.699,482
10.7,483
10.701,485
10.702,481
10.703,475
10.704,475
10.705,480
10.706,480
10.707,473
10.708,475
10.709,480
10.71,484
10.711,480
10.712,465
10.713,468
10.714,481
10.715,490
10.716,494
10.717,493
10.718,487
10.719,483
10.72,480
10.721,475
10.722,476
10.723,483
10.724,488
10.725,487
10.726,486
10.727,490
10.728,493
10.729,488
10.73,486
10.731,483
10.732,482
10.733,483
10.734,484
10.735,486
10.736,483
10.737,477
10.738,483
10.739,486
10.74,489
10.741,489
10.742,490
10.743,492
10.744,494
10.745,492
10.746,487
10.747,488
10.748,496
10.749,507
10.75,515
10.751,518
10.752,519
10.753,524
10.754,533
10.755,548
10.756,564
10.757,578
10.758,584
10.759,598
10.76,617
10.761,641
10.762,663
10.763,684
10.764,704
10.765,721
10.766,736
10.767,752
10.768,770
10.769,783
10.77,793
10.771,799
10.772,803
10.773,808
10.774,812
10.775,815
10.776,806
10.777,785
10.778,756
10.779,730
10.78,701
10.781,669
10.782,631
10.783,580
10.784,531
10.785,483
10.786,431
10.787,382
10.788,347
10.789,328
10.79,314
10.791,304
10.792,302
10.793,302
10.794,298
10.795,293
10.796,285
10.797,284
10.798,289
10.799,294
10.8,295
10.801,297
10.802,299
10.803,301
10.804,307
10.805,315
10.806,327
10.807,342
10.808,352
10.809,359
10.81,364
10.811,370
10.812,384
10.813,393
10.814,405
10.815,416
10.816,423
10.817,430
10.818,436
10.819,442
10.82,453
10.821,463
10.822,471
10.823,478
10.824,480
10.825,475
10.826,465
10.827,460
10.828,463
10.829,471
10.83,478
10.831,484
10.832,482
10.833,481
10.834,482
10.835,481
10.836,481
10.837,480
10.838,486
10.839,485
10.84,476
10.841,470
10.842,471
10.843,476
10.844,480
10.845,483
10.846,483
10.847,479
10.848,478
10.849,481
10.85,487
10.851,488
10.852,492
10.853,492
10.854,492
10.855,491
10.856,495
10.857,500
10.858,497
10.859,491
10.86,488
10.861,483
10.862,481
10.863,480
10.864,481
10.865,482
10.866,483
10.867,485
10.868,487
10.869,491
10.87,496
10.871,499
10.872,499
10.873,497
10.874,501
10.875,506
10.876,506
10.877,506
10.878,503
10.879,498
10.88,496
10.881,497
10.882,496
10.883,495
10.884,495
10.885,495
10.886,495
10.887,495
10.888,491
10.889,490
10.89,493
10.891,498
10.892,501
10.893,502
10.894,502
10.895,502
10.896,502
10.897,498
10.898,497
10.899,495
10.9,498
10.901,502
10.902,505
10.903,508
10.904,511
10.905,512
10.906,507
10.907,507
10.908,508
10.909,510
10.91,511
10.911,511
10.912,511
10.913,509
10.914,511
10.915,513
10.916,516
10.917,514
10.918,512
10.919,508
10.92,508
10.921,508
10.922,506
10.923,504
10.924,510
10.925,516
10.926,516
10.927,512
10.928,508
10.929,511
10.93,512
10.931,512
10.932,512
10.933,512
10.934,513
10.935,521
10.936,526
10.937,523
10.938,508
10.939,497
10.94,494
10.941,494
10.942,504
10.943,504
10.944,499
10.945,501
10.946,504
10.947,506
10.948,509
10.949,513
10.95,516
10.951,514
10.952,512
10.953,513
10.954,515
10.955,517
10.956,523
10.957,526
10.958,528
10.959,528
10.96,524
10.961,526
10.962,530
10.963,532
10.964,529
10.965,519
10.966,517
10.967,521
10.968,524
10.969,529
10.97,532
10.971,541
10.972,547
10.973,547
10.974,546
10.975,546
10.976,539
10.977,533
10.978,540
10.979,546
10.98,536
10.981,534
10.982,537
10.983,538
10.984,540
10.985,542
10.986,542
10.987,548
10.988,551
10.989,553
10.99,549
10.991,548
10.992,546
10.993,545
10.994,549
10.995,551
10.996,548
10.997,544
10.998,544
10.999,543
11.0,541
11.001,539
11.002,537
11.003,542
11.004,541
11.005,540
11.006,538
11.007,543
11.008,547
11.009,542
11.01,540
11.011,538
11.012,539
11.013,538
11.014,535
11.015,527
11.016,528
11.017,536
11.018,537
11.019,531
11.02,524
11.021,520
11.022,521
11.023,519
11.024,511
11.025,510
11.026,512
11.027,513
11.028,511
11.029,511
11.03,510
11.031,500
11.032,488
11.033,487
11.034,488
11.035,487
11.036,486
11.037,487
11.038,489
11.039,492
11.04,492
11.041,489
11.042,493
11.043,491
11.044,485
11.045,475
11.046,472
11.047,475
11.048,479
11.049,482
11.05,480
11.051,472
11.052,465
11.053,458
11.054,454
11.055,452
11.056,452
11.057,455
11.058,457
11.059,459
11.06,463
11.061,463
11.062,462
11.063,460
11.064,459
11.065,456
11.066,454
11.067,456
11.068,454
11.069,455
11.07,457
11.071,465
11.072,470
11.073,467
11.074,455
11.075,445
11.076,444
11.077,450
11.078,458
11.079,464
11.08,466
11.081,465
11.082,457
11.083,453
11.084,459
11.085,462
11.086,462
11.087,466
11.088,462
11.089,462
11.09,460
11.091,452
11.092,444
11.093,442
11.094,450
11.095,455
11.096,449
11.097,449
11.098,463
11.099,472
11.1,466
11.101,462
11.102,463
11.103,468
11.104,471
11.105,471
11.106,473
11.107,473
11.108,474
11.109,471
11.11,469
11.111,471
11.112,472
11.113,476
11.114,479
11.115,479
11.116,480
11.117,480
11.118,480
11.119,475
11.12,475
11.121,475
11.122,477
11.123,479
11.124,478
11.125,474
11.126,473
11.127,475
11.128,477
11.129,479
11.13,481
11.131,479
11.132,475
11.133,474
11.134,474
11.135,476
11.136,482
11.137,482
11.138,483
11.139,480
11.14,478
11.141,481
11.142,472
11.143,468
11.144,470
11.145,471
11.146,471
11.147,472
11.148,471
11.149,470
11.15,472
11.151,476
11.152,476
11.153,476
11.154,474
11.155,476
11.156,479
11.157,479
11.158,480
11.159,479
11.16,476
11.161,479
11.162,483
11.163,487
11.164,492
11.165,493
11.166,492
11.167,494
11.168,500
11.169,504
11.17,493
11.171,479
11.172,472
11.173,471
11.174,469
11.175,467
11.176,471
11.177,479
11.178,482
11.179,484
11.18,483
11.181,482
11.182,482
11.183,486
11.184,485
11.185,487
11.186,494
11.187,495
11.188,494
11.189,496
11.19,495
11.191,491
11.192,494
11.193,490
11.194,486
11.195,487
11.196,487
11.197,492
11.198,497
11.199,497
11.2,496
11.201,501
11.202,504
11.203,504
11.204,502
11.205,499
11.206,500
11.207,505
11.208,501
11.209,499
11.21,498
11.211,504
11.212,508
11.213,509
11.214,509
11.215,508
11.216,508
11.217,510
11.218,512
11.219,506
11.22,506
11.221,505
11.222,503
11.223,500
11.224,496
11.225,499
11.226,508
11.227,506
11.228,507
11.229,508
11.23,511
11.231,512
11.232,512
11.233,508
11.234,508
11.235,509
11.236,509
11.237,507
11.238,504
11.239,502
11.24,499
11.241,497
11.242,496
11.243,498
11.244,502
11.245,507
11.246,509
11.247,508
11.248,508
11.249,510
11.25,509
11.251,507
11.252,510
11.253,512
11.254,510
11.255,516
11.256,513
11.257,502
11.258,499
11.259,501
11.26,499
11.261,499
11.262,500
11.263,502
11.264,505
11.265,512
11.266,516
11.267,515
11.268,512
11.269,514
11.27,517
11.271,514
11.272,510
11.273,504
11.274,501
11.275,503
11.276,506
11.277,507
11.278,508
11.279,507
11.28,505
11.281,507
11.282,509
11.283,512
11.284,514
11.285,514
11.286,510
11.287,507
11.288,504
11.289,504
11.29,508
11.291,509
11.292,522
11.293,529
11.294,531
11.295,527
11.296,525
11.297,520
11.298,513
11.299,508
11.3,508
11.301,507
11.302,507
11.303,508
11.304,503
11.305,502
11.306,508
11.307,513
11.308,514
11.309,519
11.31,524
11.311,522
11.312,513
11.313,510
11.314,510
11.315,508
11.316,514
11.317,519
11.318,522
11.319,521
11.32,521
11.321,523
11.322,521
11.323,518
11.324,518
11.325,522
11.326,521
11.327,519
11.328,516
11.329,517
11.33,514
11.331,510
11.332,509
11.333,507
11.334,513
11.335,508
11.336,501
11.337,502
11.338,510
11.339,520
11.34,521
11.341,523
11.342,519
11.343,515
11.344,515
11.345,518
11.346,518
11.347,519
11.348,518
11.349,519
11.35,521
11.351,525
11.352,529
11.353,532
11.354,531
11.355,530
11.356,534
11.357,539
11.358,541
11.359,540
11.36,536
11.361,536
11.362,539
11.363,539
11.364,542
11.365,543
11.366,541
11.367,540
11.368,540
11.369,539
11.37,535
11.371,535
11.372,534
11.373,537
11.374,542
11.375,544
11.376,537
11.377,534
11.378,533
11.379,529
11.38,528
11.381,534
11.382,539
11.383,544
11.384,536
11.385,524
11.386,517
11.387,513
11.388,509
11.389,506
11.39,505
11.391,508
11.392,509
11.393,504
11.394,500
11.395,499
11.396,503
11.397,501
11.398,499
11.399,504
11.4,506
11.401,508
11.402,509
11.403,510
11.404,508
11.405,508
11.406,515
11.407,518
11.408,515
11.409,503
11.41,499
11.411,500
11.412,503
11.413,505
11.414,507
11.415,510
11.416,515
11.417,509
11.418,499
11.419,498
11.42,502
11.421,504
11.422,504
11.423,503
11.424,504
11.425,506
11.426,507
11.427,507
11.428,508
11.429,512
11.43,513
11.431,515
11.432,515
11.433,514
11.434,512
11.435,515
11.436,513
11.437,511
11.438,510
11.439,510
11.44,512
11.441,515
11.442,516
11.443,510
11.444,507
11.445,509
11.446,513
11.447,514
11.448,513
11.449,514
11.45,513
11.451,512
11.452,512
11.453,510
11.454,505
11.455,504
11.456,515
11.457,521
11.458,517
11.459,517
11.46,509
11.461,503
11.462,507
11.463,516
11.464,520
11.465,522
11.466,518
11.467,514
11.468,508
11.469,506
11.47,505
11.471,504
11.472,506
11.473,508
11.474,512
11.475,515
11.476,519
11.477,529
11.478,541
11.479,556
11.48,567
11.481,579
11.482,599
11.483,613
11.484,628
11.485,647
11.486,666
11.487,685
11.488,706
11.489,728
11.49,743
11.491,756
11.492,772
11.493,788
11.494,806
11.495,819
11.496,828
11.497,836
11.498,842
11.499,845
11.5,844
11.501,835
11.502,815
11.503,781
11.504,747
11.505,713
11.506,678
11.507,639
11.508,590
11.509,532
11.51,478
11.511,428
11.512,381
11.513,341
11.514,311
11.515,284
11.516,269
11.517,261
11.518,255
11.519,250
11.52,249
11.521,252
11.522,257
11.523,263
11.524,271
11.525,278
11.526,275
11.527,278
11.528,287
11.529,304
11.53,321
11.531,333
11.532,345
11.533,356
11.534,365
11.535,374
11.536,385
11.537,398
11.538,419
11.539,435
11.54,450
11.541,460
11.542,469
11.543,482
11.544,486
11.545,481
11.546,482
11.547,489
11.548,500
11.549,510
11.55,517
11.551,518
11.552,519
11.553,517
11.554,519
11.555,522
11.556,524
11.557,521
11.558,516
11.559,513
11.56,513
11.561,515
11.562,519
11.563,519
11.564,521
11.565,522
11.566,525
11.567,524
11.568,519
11.569,514
11.57,516
11.571,524
11.572,527
11.573,523
11.574,524
11.575,528
11.576,519
11.577,514
11.578,518
11.579,519
11.58,519
11.581,519
11.582,520
11.583,514
11.584,511
11.585,517
11.586,515
11.587,508
11.588,511
11.589,514
11.59,515
11.591,515
11.592,517
11.593,519
11.594,523
11.595,524
11.596,526
11.597,528
11.598,520
11.599,516
11.6,512
11.601,514
11.602,520
11.603,526
11.604,534
11.605,538
11.606,540
11.607,536
11.608,531
11.609,535
11.61,533
11.611,528
11.612,527
11.613,535
11.614,537
11.615,532
11.616,531
11.617,536
11.618,534
11.619,531
11.62,528
11.621,528
11.622,532
11.623,535
11.624,538
11.625,537
11.626,536
11.627,535
11.628,530
11.629,525
11.63,527
11.631,529
11.632,533
11.633,538
11.634,536
11.635,532
11.636,540
11.637,547
11.638,541
11.639,533
11.64,530
11.641,526
11.642,530
11.643,529
11.644,531
11.645,532
11.646,540
11.647,544
11.648,540
11.649,538
11.65,544
11.651,546
11.652,542
11.653,536
11.654,543
11.655,540
11.656,536
11.657,529
11.658,529
11.659,530
11.66,536
11.661,541
11.662,539
11.663,543
11.664,546
11.665,540
11.666,530
11.667,537
11.668,539
11.669,542
11.67,542
11.671,540
11.672,545
11.673,547
11.674,545
11.675,547
11.676,551
11.677,551
11.678,551
11.679,552
11.68,548
11.681,547
11.682,552
11.683,550
11.684,548
11.685,544
11.686,542
11.687,542
11.688,549
11.689,567
11.69,574
11.691,575
11.692,579
11.693,584
11.694,583
11.695,576
11.696,567
11.697,561
11.698,561
11.699,560
11.7,566
11.701,572
11.702,580
11.703,582
11.704,568
11.705,567
11.706,572
11.707,568
11.708,565
11.709,563
11.71,561
11.711,557
11.712,556
11.713,566
11.714,584
11.715,590
11.716,588
11.717,580
11.718,573
11.719,574
11.72,575
11.721,574
11.722,574
11.723,575
11.724,569
11.725,565
11.726,569
11.727,577
11.728,580
11.729,583
11.73,577
11.731,568
11.732,563
11.733,565
11.734,560
11.735,556
11.736,554
11.737,560
11.738,560
11.739,556
11.74,555
11.741,549
11.742,544
11.743,545
11.744,547
11.745,545
11.746,548
11.747,549
11.748,543
11.749,536
11.75,533
11.751,523
11.752,516
11.753,516
11.754,522
11.755,523
11.756,515
11.757,512
11.758,507
11.759,507
11.76,509
11.761,509
11.762,510
11.763,514
11.764,513
11.765,504
11.766,495
11.767,485
11.768,486
11.769,492
11.77,502
11.771,490
11.772,487
11.773,480
11.774,478
11.775,477
11.776,472
11.777,470
11.778,465
11.779,463
11.78,468
11.781,473
11.782,473
11.783,475
11.784,477
11.785,474
11.786,475
11.787,473
11.788,468
11.789,464
11.79,463
11.791,464
11.792,468
11.793,468
11.794,465
11.795,463
11.796,463
11.797,472
11.798,483
11.799,490
11.8,483
11.801,472
11.802,467
11.803,466
11.804,463
11.805,463
11.806,464
11.807,457
11.808,460
11.809,468
11.81,473
11.811,476
11.812,476
11.813,478
11.814,478
11.815,477
11.816,475
11.817,470
11.818,462
11.819,458
11.82,465
11.821,471
11.822,472
11.823,473
11.824,477
11.825,476
11.826,471
11.827,470
11.828,476
11.829,479
11.83,480
11.831,478
11.832,478
11.833,478
11.834,481
11.835,483
11.836,484
11.837,480
11.838,482
11.839,486
11.84,485
11.841,480
11.842,478
11.843,475
11.844,474
11.845,474
11.846,479
11.847,482
11.848,486
11.849,490
11.85,486
11.851,483
11.852,479
11.853,486
11.854,497
11.855,493
11.856,481
11.857,475
11.858,483
11.859,488
11.86,492
11.861,491
11.862,488
11.863,491
11.864,487
11.865,480
11.866,482
11.867,484
11.868,491
11.869,492
11.87,488
11.871,487
11.872,488
11.873,490
11.874,489
11.875,490
11.876,492
11.877,495
11.878,497
11.879,500
11.88,501
11.881,503
11.882,509
11.883,508
11.884,505
11.885,504
11.886,503
11.887,502
11.888,499
11.889,502
11.89,503
11.891,505
11.892,504
11.893,505
11.894,500
11.895,498
11.896,503
11.897,512
11.898,521
11.899,524
11.9,518
11.901,513
11.902,509
11.903,505
11.904,500
11.905,503
11.906,505
11.907,507
11.908,508
11.909,510
11.91,513
11.911,514
11.912,516
11.913,515
11.914,512
11.915,511
11.916,513
11.917,513
11.918,514
11.919,518
11.92,519
11.921,517
11.922,512
11.923,512
11.924,512
11.925,515
11.926,519
11.927,518
11.928,521
11.929,524
11.93,527
11.931,531
11.932,531
11.933,529
11.934,528
11.935,521
11.936,512
