timestamp,A2
0,509
1,495
2,503
3,514
4,515
5,511
6,505
7,500
8,501
9,499
10,509
11,516
12,512
13,508
14,508
15,510
16,506
17,507
18,507
19,504
20,508
21,509
22,510
23,505
24,509
25,514
26,505
27,502
28,504
29,504
30,506
31,507
32,507
33,508
34,510
35,509
36,511
37,513
38,509
39,510
40,496
41,512
42,515
43,510
44,505
45,505
46,505
47,508
48,509
49,508
50,508
51,506
52,505
53,512
54,507
55,476
56,524
57,535
58,504
59,493
60,521
61,517
62,511
63,508
64,504
65,499
66,497
67,502
68,511
69,515
70,518
71,518
72,513
73,508
74,508
75,509
76,506
77,504
78,502
79,503
80,504
81,507
82,508
83,508
84,508
85,503
86,484
87,478
88,557
89,519
90,508
91,511
92,507
93,484
94,492
95,542
96,525
97,509
98,510
99,509
100,507
101,504
102,503
103,504
104,505
105,507
106,506
107,508
108,508
109,504
110,508
111,510
112,509
113,503
114,493
115,513
116,517
117,511
118,505
119,503
120,504
121,507
122,513
123,513
124,510
125,505
126,501
127,501
128,510
129,511
130,514
131,517
132,516
133,507
134,504
135,502
136,502
137,500
138,508
139,516
140,514
141,508
142,504
143,502
144,504
145,505
146,494
147,511
148,526
149,513
150,502
151,508
152,511
153,505
154,504
155,507
156,505
157,505
158,504
159,499
160,504
161,515
162,516
163,512
164,509
165,504
166,503
167,507
168,511
169,511
170,513
171,512
172,512
173,507
174,504
175,504
176,507
177,508
178,510
179,509
180,507
181,506
182,507
183,507
184,507
185,509
186,508
187,507
188,509
189,505
190,504
191,508
192,502
193,505
194,516
195,518
196,510
197,511
198,508
199,504
200,507
201,507
202,505
203,506
204,507
205,489
206,488
207,535
208,522
209,514
210,509
211,504
212,504
213,503
214,505
215,506
216,513
217,496
218,469
219,555
220,523
221,503
222,493
223,486
224,532
225,517
226,507
227,506
228,504
229,507
230,506
231,507
232,508
233,504
234,505
235,507
236,508
237,505
238,504
239,492
240,508
241,525
242,511
243,505
244,506
245,510
246,504
247,500
248,505
249,508
250,505
251,504
252,507
253,531
254,526
255,512
256,503
257,510
258,502
259,509
260,512
261,504
262,504
263,503
264,503
265,504
266,504
267,510
268,510
269,507
270,504
271,506
272,508
273,512
274,511
275,508
276,508
277,507
278,504
279,505
280,504
281,507
282,507
283,508
284,515
285,512
286,509
287,509
288,509
289,508
290,507
291,508
292,507
293,507
294,505
295,506
296,508
297,505
298,507
299,507
300,505
301,504
302,501
303,511
304,512
305,513
306,510
307,507
308,508
309,507
310,506
311,503
312,508
313,512
314,511
315,510
316,507
317,508
318,508
319,506
320,505
321,487
322,485
323,534
324,525
325,515
326,509
327,505
328,503
329,505
330,496
331,491
332,526
333,526
334,512
335,504
336,507
337,507
338,508
339,510
340,507
341,504
342,506
343,507
344,506
345,505
346,508
347,506
348,508
349,508
350,510
351,512
352,513
353,508
354,507
355,505
356,506
357,503
358,504
359,505
360,508
361,504
362,513
363,513
364,512
365,515
366,508
367,521
368,508
369,504
370,506
371,508
372,507
373,504
374,491
375,489
376,494
377,527
378,548
379,518
380,507
381,506
382,504
383,505
384,508
385,505
386,505
387,505
388,507
389,508
390,507
391,506
392,507
393,507
394,493
395,519
396,514
397,507
398,504
399,502
400,505
401,504
402,504
403,511
404,516
405,511
406,504
407,503
408,509
409,513
410,509
411,508
412,509
413,511
414,511
415,509
416,505
417,504
418,505
419,510
420,506
421,505
422,508
423,507
424,527
425,516
426,507
427,508
428,506
429,505
430,507
431,507
432,505
433,507
434,511
435,509
436,507
437,504
438,480
439,514
440,531
441,515
442,509
443,507
444,510
445,505
446,503
447,503
448,508
449,509
450,507
451,503
452,511
453,516
454,512
455,502
456,505
457,505
458,514
459,512
460,510
461,507
462,503
463,505
464,500
465,512
466,504
467,504
468,505
469,513
470,519
471,510
472,509
473,511
474,508
475,506
476,506
477,507
478,506
479,506
480,505
481,508
482,507
483,508
484,508
485,506
486,505
487,504
488,504
489,505
490,502
491,499
492,510
493,517
494,518
495,519
496,519
497,509
498,506
499,511
500,507
501,506
502,505
503,502
504,505
505,511
506,508
507,507
508,505
509,504
510,506
511,508
512,507
513,498
514,495
515,525
516,518
517,510
518,508
519,508
520,507
521,505
522,487
523,506
524,532
525,511
526,497
527,459
528,538
529,522
530,491
531,536
532,514
533,515
534,504
535,509
536,512
537,504
538,509
539,512
540,513
541,502
542,493
543,511
544,508
545,508
546,511
547,510
548,505
549,505
550,508
551,509
552,507
553,507
554,507
555,508
556,507
557,506
558,499
559,510
560,510
561,510
562,513
563,511
564,508
565,508
566,506
567,506
568,507
569,507
570,507
571,510
572,511
573,507
574,505
575,507
576,507
577,508
578,508
579,503
580,505
581,506
582,509
583,504
584,510
585,515
586,508
587,509
588,511
589,509
590,507
591,505
592,509
593,511
594,509
595,504
596,509
597,511
598,511
599,507
600,507
601,486
602,513
603,521
604,509
605,509
606,509
607,504
608,505
609,501
610,502
611,502
612,502
613,515
614,517
615,505
616,506
617,513
618,514
619,511
620,504
621,516
622,512
623,510
624,508
625,504
626,505
627,502
628,500
629,499
630,480
631,485
632,499
633,538
634,531
635,540
636,538
637,513
638,502
639,499
640,501
641,503
642,504
643,507
644,503
645,504
646,506
647,506
648,504
649,505
650,503
651,506
652,507
653,507
654,511
655,511
656,509
657,496
658,501
659,517
660,524
661,512
662,507
663,505
664,509
665,508
666,508
667,507
668,505
669,506
670,508
671,507
672,507
673,508
674,508
675,509
676,511
677,506
678,506
679,505
680,505
681,505
682,503
683,499
684,491
685,519
686,527
687,526
688,519
689,510
690,505
691,503
692,500
693,504
694,512
695,507
696,504
697,505
698,507
699,500
700,495
701,529
702,522
703,511
704,508
705,506
706,504
707,504
708,504
709,504
710,507
711,514
712,511
713,508
714,507
715,503
716,503
717,501
718,504
719,511
720,507
721,516
722,518
723,510
724,508
725,505
726,502
727,500
728,487
729,489
730,545
731,528
732,514
733,505
734,501
735,502
736,501
737,513
738,511
739,511
740,512
741,503
742,506
743,505
744,505
745,504
746,504
747,507
748,481
749,492
750,527
751,539
752,520
753,504
754,501
755,512
756,503
757,475
758,504
759,551
760,515
761,507
762,504
763,504
764,502
765,500
766,496
767,489
768,519
769,534
770,508
771,518
772,518
773,513
774,508
775,505
776,504
777,505
778,504
779,504
780,502
781,504
782,508
783,512
784,508
785,504
786,505
787,507
788,505
789,505
790,507
791,507
792,510
793,512
794,513
795,510
796,509
797,505
798,505
799,506
800,506
801,502
802,504
803,507
804,508
805,512
806,513
807,515
808,511
809,504
810,505
811,505
812,508
813,517
814,514
815,508
816,507
817,504
818,492
819,481
820,526
821,519
822,516
823,512
824,507
825,504
826,503
827,506
828,497
829,491
830,524
831,518
832,499
833,507
834,520
835,509
836,509
837,511
838,509
839,506
840,507
841,505
842,505
843,507
844,503
845,513
846,514
847,509
848,509
849,509
850,508
851,506
852,507
853,505
854,509
855,509
856,508
857,511
858,508
859,505
860,506
861,506
862,501
863,492
864,506
865,518
866,509
867,512
868,511
869,504
870,504
871,507
872,507
873,497
874,488
875,472
876,545
877,558
878,541
879,523
880,508
881,502
882,499
883,501
884,500
885,500
886,501
887,504
888,505
889,505
890,506
891,506
892,504
893,506
894,509
895,510
896,510
897,508
898,507
899,507
900,504
901,505
902,506
903,509
904,508
905,510
906,509
907,492
908,496
909,537
910,519
911,481
912,502
913,533
914,513
915,507
916,506
917,494
918,519
919,517
920,510
921,509
922,510
923,507
924,504
925,504
926,505
927,502
928,502
929,512
930,513
931,510
932,507
933,505
934,506
935,507
936,505
937,507
938,507
939,508
940,511
941,509
942,507
943,505
944,507
945,509
946,508
947,508
948,509
949,507
950,507
951,508
952,505
953,505
954,507
955,505
956,505
957,506
958,512
959,511
960,511
961,510
962,506
963,489
964,518
965,524
966,508
967,505
968,506
969,516
970,509
971,506
972,513
973,514
974,508
975,507
976,505
977,505
978,507
979,505
980,507
981,502
982,506
983,512
984,510
985,508
986,507
987,508
988,507
989,508
990,509
991,509
992,508
993,505
994,507
995,507
996,507
997,508
998,508
999,505
1000,503
1001,506
1002,505
1003,504
1004,509
1005,511
1006,511
1007,509
1008,508
1009,502
1010,502
1011,501
1012,532
1013,490
1014,517
1015,555
1016,514
1017,503
1018,502
1019,502
1020,504
1021,504
1022,504
1023,504
1024,505
1025,507
1026,507
1027,505
1028,505
1029,508
1030,507
1031,507
1032,506
1033,507
1034,508
1035,505
1036,506
1037,507
1038,505
1039,511
1040,515
1041,514
1042,514
1043,511
1044,510
1045,504
1046,508
1047,509
1048,510
1049,505
1050,505
1051,503
1052,506
1053,502
1054,485
1055,504
1056,541
1057,519
1058,508
1059,506
1060,504
1061,504
1062,503
1063,505
1064,507
1065,503
1066,512
1067,513
1068,513
1069,508
1070,507
1071,504
1072,499
1073,514
1074,508
1075,507
1076,506
1077,507
1078,506
1079,507
1080,502
1081,509
1082,514
1083,510
1084,508
1085,509
1086,509
1087,508
1088,508
1089,508
1090,507
1091,507
1092,507
1093,506
1094,506
1095,510
1096,507
1097,504
1098,505
1099,507
1100,504
1101,505
1102,510
1103,515
1104,509
1105,512
1106,510
1107,505
1108,505
1109,507
1110,505
1111,502
1112,503
1113,502
1114,496
1115,519
1116,526
1117,512
1118,508
1119,504
1120,491
1121,503
1122,524
1123,508
1124,493
1125,522
1126,536
1127,512
1128,503
1129,502
1130,503
1131,502
1132,503
1133,509
1134,510
1135,509
1136,508
1137,506
1138,507
1139,504
1140,504
1141,507
1142,509
1143,509
1144,509
1145,507
1146,508
1147,509
1148,507
1149,508
1150,504
1151,507
1152,510
1153,510
1154,509
1155,508
1156,508
1157,505
1158,506
1159,506
1160,508
1161,509
1162,504
1163,508
1164,510
1165,508
1166,511
1167,511
1168,509
1169,506
1170,509
1171,505
1172,507
1173,507
1174,509
1175,497
1176,509
1177,510
1178,504
1179,505
1180,504
1181,511
1182,519
1183,515
1184,504
1185,509
1186,513
1187,512
1188,509
1189,505
1190,506
1191,505
1192,505
1193,506
1194,508
1195,506
1196,508
1197,510
1198,512
1199,511
1200,508
1201,507
1202,508
1203,508
1204,506
1205,503
1206,504
1207,505
1208,502
1209,501
1210,504
1211,509
1212,511
1213,521
1214,505
1215,506
1216,533
1217,507
1218,501
1219,512
1220,496
1221,504
1222,520
1223,510
1224,506
1225,493
1226,500
1227,513
1228,512
1229,487
1230,502
1231,537
1232,518
1233,510
1234,506
1235,505
1236,508
1237,508
1238,504
1239,506
1240,509
1241,506
1242,504
1243,507
1244,507
1245,506
1246,508
1247,505
1248,508
1249,510
1250,511
1251,509
1252,504
1253,507
1254,509
1255,508
1256,509
1257,508
1258,505
1259,504
1260,508
1261,508
1262,506
1263,508
1264,510
1265,505
1266,504
1267,512
1268,518
1269,514
1270,511
1271,511
1272,508
1273,504
1274,506
1275,506
1276,506
1277,505
1278,504
1279,508
1280,508
1281,508
1282,502
1283,505
1284,515
1285,511
1286,508
1287,508
1288,496
1289,516
1290,522
1291,511
1292,508
1293,509
1294,508
1295,507
1296,506
1297,506
1298,507
1299,508
1300,505
1301,505
1302,506
1303,507
1304,508
1305,508
1306,507
1307,507
1308,506
1309,504
1310,507
1311,510
1312,509
1313,509
1314,508
1315,508
1316,506
1317,499
1318,497
1319,503
1320,503
1321,510
1322,516
1323,524
1324,528
1325,520
1326,511
1327,492
1328,501
1329,524
1330,511
1331,505
1332,489
1333,484
1334,532
1335,518
1336,505
1337,505
1338,507
1339,508
1340,504
1341,504
1342,505
1343,506
1344,505
1345,506
1346,505
1347,506
1348,507
1349,506
1350,506
1351,507
1352,509
1353,506
1354,510
1355,500
1356,508
1357,525
1358,517
1359,507
1360,506
1361,508
1362,508
1363,507
1364,508
1365,506
1366,506
1367,504
1368,508
1369,506
1370,507
1371,507
1372,508
1373,508
1374,507
1375,507
1376,508
1377,507
1378,505
1379,508
1380,505
1381,505
1382,499
1383,483
1384,479
1385,535
1386,542
1387,533
1388,519
1389,509
1390,506
1391,505
1392,504
1393,506
1394,505
1395,505
1396,506
1397,506
1398,506
1399,507
1400,505
1401,507
1402,509
1403,508
1404,500
1405,483
1406,515
1407,513
1408,510
1409,513
1410,513
1411,513
1412,510
1413,510
1414,508
1415,507
1416,505
1417,505
1418,504
1419,506
1420,507
1421,507
1422,509
1423,510
1424,508
1425,507
1426,504
1427,500
1428,504
1429,507
1430,514
1431,503
1432,492
1433,535
1434,519
1435,511
1436,524
1437,511
1438,497
1439,501
1440,510
1441,508
1442,506
1443,510
1444,507
1445,507
1446,505
1447,508
1448,507
1449,505
1450,503
1451,493
1452,461
1453,550
1454,532
1455,500
1456,512
1457,513
1458,508
1459,503
1460,509
1461,515
1462,512
1463,510
1464,506
1465,504
1466,506
1467,505
1468,504
1469,510
1470,510
1471,508
1472,506
1473,505
1474,507
1475,507
1476,508
1477,508
1478,507
1479,506
1480,506
1481,507
1482,506
1483,507
1484,500
1485,515
1486,512
1487,491
1488,519
1489,510
1490,510
1491,514
1492,512
1493,508
1494,506
1495,506
1496,505
1497,507
1498,509
1499,510
1500,508
1501,509
1502,508
1503,507
1504,505
1505,507
1506,504
1507,500
1508,505
1509,507
1510,512
1511,507
1512,508
1513,501
1514,526
1515,519
1516,508
1517,508
1518,504
1519,480
1520,513
1521,529
1522,521
1523,513
1524,507
1525,504
1526,505
1527,506
1528,506
1529,507
1530,506
1531,505
1532,504
1533,504
1534,502
1535,474
1536,508
1537,542
1538,519
1539,506
1540,508
1541,508
1542,504
1543,508
1544,511
1545,505
1546,507
1547,515
1548,514
1549,512
1550,513
1551,503
1552,503
1553,503
1554,511
1555,507
1556,493
1557,507
1558,513
1559,508
1560,508
1561,509
1562,506
1563,505
1564,507
1565,507
1566,504
1567,509
1568,514
1569,509
1570,508
1571,505
1572,511
1573,515
1574,508
1575,507
1576,504
1577,503
1578,506
1579,505
1580,513
1581,511
1582,507
1583,507
1584,509
1585,511
1586,512
1587,508
1588,504
1589,508
1590,506
1591,509
1592,505
1593,506
1594,506
1595,509
1596,508
1597,507
1598,508
1599,508
1600,506
1601,507
1602,506
1603,505
1604,505
1605,508
1606,498
1607,509
1608,510
1609,512
1610,508
1611,500
1612,513
1613,512
1614,505
1615,529
1616,521
1617,508
1618,505
1619,504
1620,504
1621,503
1622,505
1623,506
1624,506
1625,509
1626,507
1627,507
1628,504
1629,505
1630,507
1631,505
1632,506
1633,507
1634,504
1635,504
1636,496
1637,451
1638,503
1639,575
1640,539
1641,516
1642,518
1643,519
1644,509
1645,502
1646,504
1647,504
1648,504
1649,504
1650,505
1651,504
1652,505
1653,506
1654,506
1655,507
1656,506
1657,507
1658,507
1659,507
1660,508
1661,505
1662,509
1663,507
1664,508
1665,508
1666,508
1667,508
1668,509
1669,508
1670,510
1671,509
1672,510
1673,508
1674,505
1675,508
1676,507
1677,505
1678,508
1679,509
1680,508
1681,507
1682,507
1683,508
1684,505
1685,495
1686,511
1687,516
1688,512
1689,511
1690,511
1691,509
1692,507
1693,508
1694,508
1695,508
1696,510
1697,508
1698,504
1699,507
1700,510
1701,507
1702,508
1703,507
1704,509
1705,508
1706,507
1707,509
1708,505
1709,507
1710,507
1711,507
1712,507
1713,507
1714,510
1715,507
1716,505
1717,500
1718,497
1719,499
1720,489
1721,495
1722,546
1723,537
1724,520
1725,496
1726,482
1727,520
1728,529
1729,511
1730,510
1731,508
1732,504
1733,504
1734,503
1735,504
1736,505
1737,507
1738,507
1739,506
1740,506
1741,504
1742,508
1743,508
1744,508
1745,505
1746,508
1747,508
1748,508
1749,508
1750,510
1751,507
1752,508
1753,508
1754,509
1755,507
1756,505
1757,502
1758,483
1759,498
1760,535
1761,523
1762,518
1763,513
1764,510
1765,508
1766,506
1767,502
1768,505
1769,507
1770,508
1771,507
1772,506
1773,507
1774,504
1775,507
1776,505
1777,507
1778,508
1779,509
1780,509
1781,508
1782,507
1783,505
1784,509
1785,509
1786,507
1787,508
1788,507
1789,508
1790,506
1791,509
1792,508
1793,505
1794,506
1795,507
1796,508
1797,507
1798,508
1799,506
1800,507
1801,508
1802,508
1803,505
1804,503
1805,504
1806,508
1807,505
1808,507
1809,511
1810,510
1811,508
1812,506
1813,506
1814,507
1815,508
1816,508
1817,508
1818,506
1819,508
1820,509
1821,508
1822,508
1823,507
1824,505
1825,508
1826,507
1827,506
1828,505
1829,504
1830,509
1831,500
1832,499
1833,517
1834,510
1835,505
1836,500
1837,504
1838,496
1839,472
1840,484
1841,551
1842,543
1843,513
1844,510
1845,508
1846,497
1847,502
1848,525
1849,506
1850,506
1851,505
1852,504
1853,509
1854,506
1855,504
1856,505
1857,503
1858,503
1859,502
1860,504
1861,502
1862,503
1863,504
1864,506
1865,504
1866,491
1867,471
1868,496
1869,491
1870,580
1871,543
1872,511
1873,502
1874,504
1875,507
1876,506
1877,504
1878,502
1879,505
1880,505
1881,504
1882,506
1883,505
1884,505
1885,506
1886,506
1887,508
1888,504
1889,503
1890,503
1891,502
1892,504
1893,500
1894,500
1895,532
1896,526
1897,517
1898,508
1899,501
1900,504
1901,507
1902,508
1903,507
1904,507
1905,508
1906,504
1907,509
1908,519
1909,505
1910,510
1911,515
1912,511
1913,505
1914,502
1915,513
1916,510
1917,510
1918,508
1919,506
1920,507
1921,502
1922,488
1923,490
1924,546
1925,509
1926,517
1927,527
1928,512
1929,509
1930,507
1931,505
1932,506
1933,507
1934,508
1935,507
1936,505
1937,505
1938,510
1939,511
1940,509
1941,507
1942,506
1943,507
1944,506
1945,506
1946,507
1947,508
1948,508
1949,507
1950,513
1951,513
1952,496
1953,514
1954,512
1955,511
1956,509
1957,507
1958,508
1959,507
1960,508
1961,506
1962,508
1963,508
1964,508
1965,509
1966,510
1967,507
1968,508
1969,507
1970,507
1971,504
1972,481
1973,486
1974,529
1975,519
1976,530
1977,521
1978,510
1979,506
1980,505
1981,504
1982,505
1983,507
1984,505
1985,505
1986,504
1987,505
1988,505
1989,505
1990,512
1991,515
1992,505
1993,499
1994,517
1995,513
1996,507
1997,504
1998,503
1999,502
2000,497
2001,477
2002,487
2003,557
2004,520
2005,518
2006,515
2007,510
2008,514
2009,512
2010,508
2011,505
2012,483
2013,518
2014,518
2015,510
2016,508
2017,504
2018,503
2019,505
2020,505
2021,507
2022,507
2023,508
2024,507
2025,509
2026,508
2027,511
2028,506
2029,507
2030,509
2031,508
2032,510
2033,509
2034,511
2035,511
2036,508
2037,508
2038,507
2039,510
2040,508
2041,508
2042,507
2043,507
2044,508
2045,509
2046,510
2047,506
2048,508
2049,509
2050,508
2051,510
2052,512
2053,508
2054,508
2055,510
2056,507
2057,506
2058,508
2059,508
2060,506
2061,507
2062,507
2063,510
2064,513
2065,511
2066,509
2067,510
2068,508
2069,507
2070,506
2071,510
2072,508
2073,510
2074,509
2075,507
2076,508
2077,505
2078,504
2079,487
2080,458
2081,544
2082,546
2083,520
2084,513
2085,510
2086,506
2087,505
2088,504
2089,504
2090,505
2091,503
2092,497
2093,499
2094,519
2095,526
2096,513
2097,510
2098,507
2099,506
2100,508
2101,505
2102,506
2103,505
2104,505
2105,508
2106,508
2107,507
2108,509
2109,506
2110,506
2111,505
2112,506
2113,509
2114,508
2115,507
2116,509
2117,508
2118,506
2119,494
2120,483
2121,532
2122,529
2123,513
2124,507
2125,506
2126,505
2127,507
2128,505
2129,503
2130,504
2131,513
2132,503
2133,508
2134,514
2135,513
2136,512
2137,512
2138,491
2139,495
2140,525
2141,513
2142,505
2143,512
2144,516
2145,512
2146,507
2147,504
2148,507
2149,507
2150,505
2151,506
2152,506
2153,507
2154,504
2155,508
2156,505
2157,507
2158,507
2159,507
2160,507
2161,508
2162,511
2163,497
2164,511
2165,511
2166,511
2167,507
2168,507
2169,505
2170,508
2171,508
2172,507
2173,507
2174,507
2175,508
2176,507
2177,509
2178,512
2179,510
2180,506
2181,505
2182,507
2183,505
2184,508
2185,509
2186,508
2187,510
2188,508
2189,506
2190,507
2191,507
2192,508
2193,505
2194,506
2195,504
2196,504
2197,508
2198,512
2199,511
2200,511
2201,509
2202,504
2203,508
2204,504
2205,480
2206,511
2207,523
2208,497
2209,479
2210,528
2211,542
2212,537
2213,516
2214,505
2215,504
2216,503
2217,503
2218,501
2219,503
2220,505
2221,505
2222,506
2223,507
2224,506
2225,505
2226,508
2227,503
2228,502
2229,502
2230,494
2231,473
2232,516
2233,520
2234,556
2235,532
2236,508
2237,506
2238,504
2239,505
2240,508
2241,506
2242,505
2243,503
2244,503
2245,505
2246,507
2247,508
2248,506
2249,507
2250,506
2251,509
2252,509
2253,508
2254,508
2255,510
2256,512
2257,509
2258,506
2259,507
2260,508
2261,510
2262,510
2263,509
2264,508
2265,509
2266,508
2267,509
2268,508
2269,508
2270,509
2271,507
2272,508
2273,510
2274,508
2275,508
2276,507
2277,507
2278,510
2279,507
2280,509
2281,510
2282,505
2283,507
2284,505
2285,509
2286,509
2287,506
2288,508
2289,510
2290,507
2291,506
2292,506
2293,506
2294,506
2295,505
2296,510
2297,511
2298,510
2299,508
2300,506
2301,509
2302,507
2303,509
2304,508
2305,509
2306,508
2307,505
2308,507
2309,505
2310,504
2311,487
2312,509
2313,523
2314,516
2315,510
2316,507
2317,503
2318,505
2319,518
2320,516
2321,498
2322,510
2323,510
2324,508
2325,508
2326,506
2327,509
2328,508
2329,505
2330,506
2331,506
2332,505
2333,502
2334,508
2335,509
2336,487
2337,449
2338,527
2339,564
2340,545
2341,519
2342,505
2343,504
2344,502
2345,501
2346,504
2347,506
2348,506
2349,503
2350,499
2351,500
2352,514
2353,515
2354,511
2355,508
2356,509
2357,505
2358,505
2359,508
2360,507
2361,507
2362,509
2363,508
2364,508
2365,506
2366,506
2367,510
2368,508
2369,507
2370,508
2371,508
2372,508
2373,509
2374,506
2375,507
2376,508
2377,508
2378,508
2379,510
2380,508
2381,505
2382,505
2383,502
2384,498
2385,503
2386,514
2387,519
2388,520
2389,513
2390,511
2391,509
2392,507
2393,506
2394,507
2395,505
2396,507
2397,507
2398,507
2399,507
2400,506
2401,505
2402,504
2403,506
2404,505
2405,506
2406,507
2407,508
2408,510
2409,512
2410,508
2411,506
2412,500
2413,490
2414,519
2415,515
2416,508
2417,508
2418,514
2419,519
2420,511
2421,509
2422,508
2423,506
2424,506
2425,507
2426,510
2427,510
2428,507
2429,508
2430,504
2431,506
2432,507
2433,505
2434,505
2435,507
2436,505
2437,505
2438,507
2439,502
2440,512
2441,518
2442,492
2443,494
2444,536
2445,526
2446,513
2447,504
2448,504
2449,505
2450,507
2451,506
2452,509
2453,507
2454,509
2455,506
2456,508
2457,508
2458,507
2459,507
2460,509
2461,505
2462,507
2463,508
2464,509
2465,507
2466,507
2467,509
2468,510
2469,508
2470,507
2471,509
2472,508
2473,509
2474,508
2475,508
2476,506
2477,506
2478,509
2479,508
2480,509
2481,509
2482,508
2483,510
2484,504
2485,508
2486,508
2487,508
2488,508
2489,511
2490,511
2491,510
2492,507
2493,506
2494,506
2495,507
2496,511
2497,499
2498,515
2499,512
2500,505
2501,501
2502,520
2503,508
2504,506
2505,506
2506,507
2507,507
2508,507
2509,507
2510,509
2511,508
2512,506
2513,486
2514,500
2515,536
2516,516
2517,505
2518,507
2519,505
2520,506
2521,508
2522,509
2523,491
2524,508
2525,518
2526,515
2527,507
2528,503
2529,480
2530,508
2531,537
2532,524
2533,510
2534,505
2535,504
2536,505
2537,506
2538,508
2539,510
2540,508
2541,505
2542,508
2543,507
2544,509
2545,507
2546,505
2547,507
2548,506
2549,508
2550,508
2551,509
2552,511
2553,506
2554,510
2555,507
2556,504
2557,504
2558,502
2559,503
2560,503
2561,503
2562,517
2563,519
2564,511
2565,505
2566,507
2567,519
2568,517
2569,507
2570,498
2571,507
2572,495
2573,493
2574,538
2575,521
2576,508
2577,505
2578,505
2579,505
2580,506
2581,505
2582,506
2583,505
2584,509
2585,505
2586,506
2587,507
2588,505
2589,506
2590,509
2591,512
2592,503
2593,507
2594,512
2595,508
2596,504
2597,505
2598,512
2599,509
2600,511
2601,510
2602,505
2603,500
2604,511
2605,503
2606,516
2607,509
2608,507
2609,506
2610,505
2611,507
2612,509
2613,510
2614,508
2615,511
2616,508
2617,512
2618,510
2619,507
2620,505
2621,507
2622,506
2623,505
2624,507
2625,504
2626,508
2627,510
2628,509
2629,507
2630,509
2631,505
2632,506
2633,507
2634,509
2635,506
2636,511
2637,511
2638,507
2639,509
2640,510
2641,510
2642,508
2643,505
2644,510
2645,508
2646,508
2647,506
2648,495
2649,485
2650,536
2651,525
2652,507
2653,506
2654,505
2655,508
2656,507
2657,487
2658,500
2659,529
2660,518
2661,509
2662,506
2663,510
2664,508
2665,507
2666,505
2667,508
2668,507
2669,507
2670,508
2671,506
2672,505
2673,507
2674,509
2675,509
2676,508
2677,507
2678,508
2679,507
2680,506
2681,505
2682,503
2683,503
2684,504
2685,499
2686,506
2687,522
2688,519
2689,513
2690,508
2691,498
2692,499
2693,502
2694,484
2695,538
2696,537
2697,514
2698,507
2699,504
2700,506
2701,506
2702,508
2703,507
2704,503
2705,505
2706,506
2707,507
2708,508
2709,505
2710,508
2711,505
2712,505
2713,507
2714,505
2715,507
2716,508
2717,508
2718,515
2719,511
2720,502
2721,493
2722,500
2723,510
2724,523
2725,525
2726,516
2727,508
2728,507
2729,504
2730,506
2731,507
2732,507
2733,507
2734,506
2735,505
2736,505
2737,507
2738,508
2739,504
2740,507
2741,507
2742,508
2743,508
2744,506
2745,507
2746,507
2747,510
2748,511
2749,510
2750,507
2751,508
2752,508
2753,508
2754,508
2755,509
2756,508
2757,507
2758,511
2759,509
2760,508
2761,506
2762,502
2763,482
2764,494
2765,518
2766,531
2767,511
2768,521
2769,512
2770,504
2771,501
2772,512
2773,512
2774,504
2775,507
2776,509
2777,510
2778,508
2779,505
2780,505
2781,506
2782,508
2783,510
2784,506
2785,507
2786,505
2787,505
2788,504
2789,506
2790,504
2791,505
2792,515
2793,517
2794,507
2795,483
2796,496
2797,535
2798,520
2799,510
2800,506
2801,492
2802,504
2803,519
2804,512
2805,506
2806,505
2807,504
2808,511
2809,511
2810,507
2811,508
2812,508
2813,507
2814,508
2815,507
2816,507
2817,507
2818,508
2819,507
2820,508
2821,508
2822,508
2823,508
2824,507
2825,506
2826,506
2827,507
2828,508
2829,508
2830,507
2831,507
2832,508
2833,510
2834,511
2835,511
2836,508
2837,506
2838,508
2839,508
2840,509
2841,508
2842,506
2843,506
2844,508
2845,505
2846,505
2847,505
2848,508
2849,511
2850,513
2851,509
2852,508
2853,510
2854,509
2855,506
2856,508
2857,507
2858,506
2859,505
2860,507
2861,507
2862,508
2863,508
2864,505
2865,507
2866,508
2867,508
2868,509
2869,507
2870,511
2871,512
2872,509
2873,506
2874,503
2875,502
2876,515
2877,511
2878,509
2879,506
2880,506
2881,506
2882,508
2883,509
2884,510
2885,507
2886,505
2887,499
2888,478
2889,528
2890,522
2891,511
2892,512
2893,513
2894,508
2895,507
2896,504
2897,506
2898,509
2899,508
2900,508
2901,506
2902,505
2903,504
2904,507
2905,502
2906,512
2907,514
2908,510
2909,507
2910,507
2911,508
2912,508
2913,508
2914,507
2915,508
2916,506
2917,506
2918,508
2919,507
2920,507
2921,507
2922,505
2923,505
2924,510
2925,510
2926,509
2927,509
2928,506
2929,502
2930,507
2931,502
2932,506
2933,513
2934,511
2935,484
2936,479
2937,533
2938,549
2939,523
2940,507
2941,504
2942,504
2943,507
2944,507
2945,504
2946,502
2947,506
2948,507
2949,507
2950,508
2951,507
2952,507
2953,504
2954,509
2955,508
2956,510
2957,507
2958,508
2959,509
2960,508
2961,506
2962,507
2963,508
2964,505
2965,508
2966,507
2967,507
2968,506
2969,505
2970,508
2971,511
2972,511
2973,512
2974,508
2975,508
2976,497
2977,493
2978,512
2979,519
2980,518
2981,513
2982,511
2983,509
2984,496
2985,504
2986,510
2987,497
2988,483
2989,494
2990,534
2991,528
2992,517
2993,519
2994,519
2995,510
2996,507
2997,511
2998,503
2999,506
3000,504
3001,505
3002,504
3003,507
3004,506
3005,507
3006,507
3007,505
3008,507
3009,509
3010,507
3011,506
3012,507
3013,508
3014,505
3015,505
3016,506
3017,506
3018,509
3019,508
3020,509
3021,508
3022,509
3023,508
3024,507
3025,509
3026,510
3027,508
3028,510
3029,508
3030,508
3031,507
3032,507
3033,510
3034,511
3035,508
3036,507
3037,506
3038,507
3039,508
3040,505
3041,508
3042,505
3043,508
3044,506
3045,510
3046,508
3047,509
3048,508
3049,507
3050,507
3051,510
3052,510
3053,509
3054,507
3055,509
3056,507
3057,510
3058,507
3059,508
3060,508
3061,508
3062,508
3063,510
3064,509
3065,508
3066,507
3067,508
3068,510
3069,507
3070,509
3071,508
3072,508
3073,509
3074,508
3075,507
3076,507
3077,505
3078,508
3079,507
3080,508
3081,508
3082,508
3083,509
3084,509
3085,507
3086,505
3087,508
3088,508
3089,509
3090,508
3091,507
3092,506
3093,508
3094,508
3095,508
3096,507
3097,508
3098,507
3099,508
3100,507
3101,505
3102,505
3103,508
3104,509
3105,509
3106,509
3107,507
3108,507
3109,507
3110,507
3111,509
3112,506
3113,508
3114,509
3115,507
3116,507
3117,510
3118,508
3119,506
3120,507
3121,507
3122,509
3123,508
3124,505
3125,505
3126,507
3127,507
3128,504
3129,508
3130,511
3131,510
3132,511
3133,510
3134,510
3135,506
3136,507
3137,508
3138,510
3139,510
3140,507
3141,508
3142,507
3143,506
3144,508
3145,508
3146,506
3147,508
3148,508
3149,508
3150,509
3151,507
3152,506
3153,511
3154,512
3155,513
3156,510
3157,506
3158,510
3159,507
3160,510
3161,509
3162,507
3163,506
3164,507
3165,508
3166,506
3167,504
3168,507
3169,506
3170,506
3171,510
3172,508
3173,508
3174,507
3175,506
3176,507
3177,506
3178,505
3179,508
3180,507
3181,508
3182,509
3183,513
3184,513
3185,511
3186,510
3187,512
3188,507
3189,507
3190,507
3191,507
3192,507
3193,506
3194,507
3195,508
3196,510
3197,504
3198,505
3199,505
3200,507
3201,507
3202,506
3203,506
3204,508
3205,509
3206,507
3207,505
3208,509
3209,507
3210,508
3211,504
3212,506
3213,507
3214,508
3215,510
3216,508
3217,507
3218,505
3219,507
3220,508
3221,508
3222,507
3223,505
3224,509
3225,511
3226,508
3227,507
3228,508
3229,507
3230,506
3231,507
3232,510
3233,508
3234,507
3235,508
3236,508
3237,507
3238,509
3239,508
3240,508
3241,506
3242,510
3243,508
3244,508
3245,506
3246,508
3247,509
3248,508
3249,508
3250,508
3251,509
3252,510
3253,510
3254,507
3255,508
3256,508
3257,508
3258,508
3259,508
3260,507
3261,508
3262,509
3263,507
3264,509
3265,507
3266,509
3267,509
3268,509
3269,505
3270,506
3271,508
3272,508
3273,508
3274,508
3275,508
3276,508
3277,507
3278,507
3279,509
3280,509
3281,509
3282,509
3283,508
3284,508
3285,506
3286,507
3287,507
3288,506
3289,507
3290,507
3291,508
3292,508
3293,508
3294,507
3295,507
3296,508
3297,508
3298,511
3299,510
3300,509
3301,508
3302,508
3303,506
3304,508
3305,507
3306,509
3307,507
3308,508
3309,508
3310,508
3311,509
3312,507
3313,507
3314,507
3315,508
3316,509
3317,508
3318,509
3319,509
3320,509
3321,509
3322,509
3323,509
3324,507
3325,508
3326,509
3327,507
3328,509
3329,508
3330,508
3331,507
3332,507
3333,508
3334,507
3335,507
3336,508
3337,507
3338,508
3339,505
3340,507
3341,506
3342,506
3343,507
3344,509
3345,509
3346,507
3347,508
3348,508
3349,509
3350,510
3351,509
3352,508
3353,508
3354,509
3355,508
3356,509
3357,509
3358,507
3359,507
3360,508
3361,507
3362,506
3363,508
3364,506
3365,511
3366,509
3367,508
3368,509
3369,507
3370,508
3371,508
3372,509
3373,509
3374,509
3375,510
3376,506
3377,508
3378,507
3379,507
3380,511
3381,510
3382,507
3383,508
3384,506
3385,506
3386,507
3387,507
3388,508
3389,510
3390,508
3391,506
3392,509
3393,510
3394,507
3395,508
3396,506
3397,509
3398,510
3399,509
3400,508
3401,509
3402,509
3403,508
3404,509
3405,506
3406,504
3407,509
3408,508
3409,509
3410,506
3411,504
3412,508
3413,507
3414,507
3415,507
3416,507
3417,505
3418,508
3419,509
3420,511
3421,507
3422,508
3423,509
3424,508
3425,508
3426,512
3427,515
3428,512
3429,513
3430,512
3431,510
3432,511
3433,507
3434,507
3435,507
3436,504
3437,507
3438,507
3439,504
3440,504
3441,508
3442,509
3443,510
3444,506
3445,506
3446,508
3447,507
3448,508
3449,508
3450,509
3451,507
3452,506
3453,506
3454,508
3455,509
3456,507
3457,506
3458,507
3459,508
3460,505
3461,507
3462,507
3463,509
3464,508
3465,508
3466,509
3467,509
3468,509
3469,510
3470,510
3471,508
3472,508
3473,509
3474,507
3475,506
3476,505
3477,506
3478,508
3479,510
3480,508
3481,509
3482,509
3483,508
3484,506
3485,505
3486,507
3487,508
3488,509
3489,506
3490,507
3491,509
3492,508
3493,506
3494,504
3495,508
3496,507
3497,509
3498,507
3499,504
3500,510
3501,511
3502,509
3503,509
3504,506
3505,508
3506,507
3507,508
3508,505
3509,505
3510,507
3511,510
3512,508
3513,507
3514,508
3515,508
3516,507
3517,508
3518,508
3519,506
3520,508
3521,510
3522,513
3523,512
3524,510
3525,509
3526,509
3527,509
3528,511
3529,511
3530,507
3531,505
3532,503
3533,505
3534,507
3535,507
3536,505
3537,508
3538,510
3539,509
3540,507
3541,504
3542,507
3543,508
3544,505
3545,507
3546,507
3547,508
3548,508
3549,508
3550,506
3551,504
3552,507
3553,508
3554,507
3555,507
3556,509
3557,506
3558,508
3559,508
3560,507
3561,508
3562,507
3563,507
3564,508
3565,509
3566,509
3567,508
3568,509
3569,508
3570,507
3571,505
3572,508
3573,506
3574,505
3575,507
3576,511
3577,508
3578,508
3579,507
3580,509
3581,506
3582,507
3583,509
3584,509
3585,510
3586,508
3587,508
3588,508
3589,507
3590,503
3591,507
3592,510
3593,509
3594,508
3595,505
3596,507
3597,508
3598,509
3599,507
3600,508
3601,506
3602,508
3603,509
3604,508
3605,508
3606,507
3607,504
3608,508
3609,508
3610,508
3611,508
3612,509
3613,508
3614,508
3615,510
3616,508
3617,510
3618,508
3619,509
3620,508
3621,507
3622,507
3623,508
3624,507
3625,507
3626,508
3627,507
3628,509
3629,508
3630,508
3631,510
3632,507
3633,508
3634,507
3635,507
3636,507
3637,505
3638,508
3639,507
3640,509
3641,507
3642,508
3643,508
3644,508
3645,507
3646,507
3647,509
3648,508
3649,508
3650,508
3651,509
3652,509
3653,508
3654,507
3655,507
3656,507
3657,509
3658,510
3659,510
3660,506
3661,506
3662,508
3663,508
3664,507
3665,508
3666,508
3667,509
3668,510
3669,507
3670,508
3671,506
3672,506
3673,506
3674,508
3675,509
3676,507
3677,510
3678,509
3679,508
3680,510
3681,509
3682,508
3683,505
3684,507
3685,507
3686,508
3687,508
3688,511
3689,510
3690,511
3691,505
3692,504
3693,507
3694,507
3695,507
3696,509
3697,508
3698,508
3699,507
3700,506
3701,508
3702,508
3703,508
3704,504
3705,508
3706,508
3707,508
3708,507
3709,507
3710,508
3711,509
3712,510
3713,511
3714,511
3715,512
3716,508
3717,508
3718,507
3719,505
3720,507
3721,507
3722,510
3723,510
3724,507
3725,505
3726,508
3727,509
3728,508
3729,508
3730,511
3731,507
3732,506
3733,510
3734,508
3735,510
3736,507
3737,509
3738,509
3739,509
3740,507
3741,508
3742,507
3743,508
3744,508
3745,506
3746,506
3747,508
3748,510
3749,508
3750,509
3751,509
3752,508
3753,508
3754,507
3755,508
3756,505
3757,508
3758,506
3759,506
3760,508
3761,508
3762,508
3763,508
3764,507
3765,507
3766,510
3767,510
3768,512
3769,509
3770,508
3771,505
3772,507
3773,509
3774,510
3775,508
3776,505
3777,505
3778,507
3779,505
3780,507
3781,506
3782,509
3783,510
3784,507
3785,507
3786,507
3787,508
3788,509
3789,507
3790,509
3791,507
3792,508
3793,510
3794,507
3795,509
3796,508
3797,509
3798,508
3799,510
3800,507
3801,508
3802,508
3803,508
3804,510
3805,508
3806,508
3807,508
3808,509
3809,507
3810,508
3811,510
3812,508
3813,507
3814,507
3815,506
3816,508
3817,508
3818,506
3819,508
3820,508
3821,508
3822,508
3823,509
3824,505
3825,508
3826,508
3827,506
3828,507
3829,509
3830,508
3831,507
3832,505
3833,509
3834,509
3835,509
3836,509
3837,508
3838,510
3839,508
3840,507
3841,507
3842,510
3843,510
3844,509
3845,509
3846,507
3847,508
3848,508
3849,507
3850,507
3851,509
3852,508
3853,508
3854,507
3855,509
3856,509
3857,507
3858,508
3859,509
3860,509
3861,510
3862,509
3863,509
3864,511
3865,506
3866,508
3867,509
3868,509
3869,513
3870,512
3871,510
3872,509
3873,509
3874,507
3875,508
3876,506
3877,505
3878,507
3879,509
3880,510
3881,512
3882,510
3883,509
3884,508
3885,508
3886,506
3887,505
3888,509
3889,507
3890,505
3891,506
3892,508
3893,508
3894,508
3895,507
3896,509
3897,509
3898,505
3899,505
3900,506
3901,505
3902,507
3903,507
3904,511
3905,510
3906,507
3907,507
3908,504
3909,506
3910,505
3911,508
3912,509
3913,510
3914,508
3915,508
3916,507
3917,510
3918,510
3919,509
3920,507
3921,508
3922,508
3923,509
3924,510
3925,509
3926,508
3927,508
3928,506
3929,506
3930,508
3931,508
3932,507
3933,508
3934,505
3935,508
3936,507
3937,509
3938,510
3939,508
3940,507
3941,507
3942,505
3943,505
3944,509
3945,508
3946,510
3947,508
3948,508
3949,510
3950,508
3951,507
3952,509
3953,508
3954,507
3955,507
3956,505
3957,506
3958,509
3959,508
3960,507
3961,507
3962,506
3963,506
3964,507
3965,506
3966,507
3967,507
3968,508
3969,510
3970,508
3971,509
3972,509
3973,509
3974,507
3975,505
3976,505
3977,510
3978,511
3979,508
3980,508
3981,509
3982,511
3983,507
3984,507
3985,511
3986,513
3987,509
3988,507
3989,507
3990,508
3991,509
3992,507
3993,507
3994,508
3995,510
3996,508
3997,508
3998,507
3999,508
4000,507
4001,507
4002,508
4003,507
4004,505
4005,507
4006,508
4007,508
4008,507
4009,508
4010,506
4011,507
4012,509
4013,510
4014,509
4015,507
4016,508
4017,508
4018,509
4019,506
4020,507
4021,508
4022,511
4023,508
4024,508
4025,507
4026,507
4027,509
4028,507
4029,509
4030,508
4031,510
4032,509
4033,507
4034,506
4035,505
4036,506
4037,508
4038,508
4039,507
4040,508
4041,506
4042,509
4043,508
4044,508
4045,510
4046,509
4047,508
4048,508
4049,507
4050,506
4051,509
4052,510
4053,509
4054,509
4055,507
4056,508
4057,508
4058,509
4059,508
4060,507
4061,508
4062,508
4063,508
4064,510
4065,506
4066,508
4067,505
4068,506
4069,508
4070,506
4071,508
4072,507
4073,507
4074,505
4075,508
4076,511
4077,508
4078,506
4079,508
4080,508
4081,511
4082,510
4083,508
4084,509
4085,509
4086,508
4087,507
4088,508
4089,509
4090,509
4091,508
4092,509
4093,509
4094,510
4095,508
4096,506
4097,508
4098,508
4099,509
4100,508
4101,507
4102,508
4103,506
4104,507
4105,507
4106,508
4107,509
4108,509
4109,505
4110,507
4111,508
4112,507
4113,507
4114,509
4115,508
4116,507
4117,508
4118,508
4119,510
4120,509
4121,509
4122,507
4123,508
4124,506
4125,507
4126,508
4127,505
4128,508
4129,507
4130,508
4131,509
4132,509
4133,508
4134,508
4135,508
4136,510
4137,507
4138,508
4139,509
4140,506
4141,508
4142,507
4143,508
4144,507
4145,508
4146,506
4147,507
4148,509
4149,510
4150,511
4151,509
4152,505
4153,508
4154,509
4155,506
4156,509
4157,508
4158,507
4159,507
4160,507
4161,506
4162,507
4163,507
4164,506
4165,509
4166,510
4167,508
4168,509
4169,508
4170,508
4171,508
4172,508
4173,505
4174,504
4175,508
4176,506
4177,507
4178,507
4179,508
4180,509
4181,507
4182,507
4183,508
4184,508
4185,509
4186,506
4187,507
4188,509
4189,505
4190,506
4191,505
4192,509
4193,509
4194,508
4195,508
4196,510
4197,507
4198,508
4199,508
4200,508
4201,509
4202,508
4203,508
4204,508
4205,508
4206,506
4207,508
4208,507
4209,507
4210,508
4211,509
4212,511
4213,509
4214,509
4215,509
4216,508
4217,507
4218,507
4219,508
4220,506
4221,508
4222,507
4223,508
4224,508
4225,506
4226,510
4227,509
4228,509
4229,507
4230,508
4231,508
4232,508
4233,505
4234,507
4235,508
4236,507
4237,507
4238,507
4239,506
4240,507
4241,511
4242,507
4243,508
4244,507
4245,507
4246,511
4247,510
4248,510
4249,510
4250,511
4251,509
4252,509
4253,508
4254,508
4255,509
4256,508
4257,507
4258,508
4259,507
4260,508
4261,505
4262,508
4263,508
4264,506
4265,507
4266,510
4267,508
4268,505
4269,508
4270,507
4271,506
4272,508
4273,508
4274,505
4275,508
4276,508
4277,505
4278,510
4279,507
4280,508
4281,509
4282,507
4283,508
4284,506
4285,508
4286,508
4287,508
4288,506
4289,509
4290,512
4291,509
4292,507
4293,508
4294,508
4295,505
4296,508
4297,508
4298,507
4299,508
4300,511
4301,509
4302,507
4303,507
4304,508
4305,511
4306,508
4307,504
4308,507
4309,506
4310,509
4311,509
4312,510
4313,509
4314,510
4315,509
4316,510
4317,507
4318,507
4319,507
4320,508
4321,508
4322,506
4323,507
4324,504
4325,508
4326,507
4327,509
4328,508
4329,506
4330,507
4331,508
4332,507
4333,509
4334,508
4335,507
4336,508
4337,508
4338,507
4339,508
4340,506
4341,508
4342,508
4343,506
4344,506
4345,508
4346,507
4347,508
4348,508
4349,509
4350,509
4351,509
4352,509
4353,508
4354,508
4355,508
4356,508
4357,507
4358,509
4359,507
4360,506
4361,506
4362,507
4363,508
4364,507
4365,508
4366,506
4367,508
4368,508
4369,509
4370,510
4371,509
4372,506
4373,508
4374,508
4375,506
4376,508
4377,507
4378,507
4379,509
4380,510
4381,508
4382,506
4383,508
4384,508
4385,508
4386,508
4387,508
4388,506
4389,509
4390,509
4391,507
4392,508
4393,508
4394,508
4395,508
4396,509
4397,507
4398,508
4399,510
4400,509
4401,509
4402,507
4403,507
4404,508
4405,506
4406,507
4407,508
4408,510
4409,506
4410,510
4411,506
4412,506
4413,509
4414,508
4415,509
4416,509
4417,508
4418,508
4419,508
4420,508
4421,507
4422,508
4423,508
4424,510
4425,506
4426,510
4427,509
4428,508
4429,510
4430,507
4431,510
4432,508
4433,508
4434,508
4435,508
4436,508
4437,510
4438,508
4439,508
4440,509
4441,505
4442,506
4443,508
4444,509
4445,507
4446,508
4447,506
4448,509
4449,507
4450,508
4451,505
4452,508
4453,509
4454,508
4455,507
4456,507
4457,509
4458,507
4459,508
4460,508
4461,507
4462,508
4463,510
4464,510
4465,509
4466,508
4467,507
4468,506
4469,508
4470,510
4471,509
4472,508
4473,508
4474,508
4475,508
4476,507
4477,507
4478,510
4479,507
4480,509
4481,508
4482,507
4483,507
4484,508
4485,507
4486,507
4487,504
4488,507
4489,509
4490,508
4491,509
4492,508
4493,510
4494,509
4495,509
4496,508
4497,507
4498,507
4499,508
4500,511
4501,509
4502,508
4503,508
4504,509
4505,511
4506,507
4507,505
4508,505
4509,506
4510,507
4511,509
4512,509
4513,506
4514,508
4515,508
4516,509
4517,506
4518,507
4519,508
4520,508
4521,509
4522,507
4523,508
4524,510
4525,511
4526,508
4527,510
4528,508
4529,508
4530,507
4531,509
4532,507
4533,509
4534,510
4535,507
4536,506
4537,504
4538,508
4539,506
4540,505
4541,510
4542,511
4543,511
4544,508
4545,508
4546,509
4547,505
4548,507
4549,506
4550,505
4551,508
4552,509
4553,511
4554,509
4555,509
4556,509
4557,507
4558,506
4559,508
4560,508
4561,506
4562,505
4563,505
4564,506
4565,511
4566,508
4567,509
4568,508
4569,508
4570,508
4571,507
4572,508
4573,510
4574,508
4575,507
4576,506
4577,508
4578,510
4579,511
4580,513
4581,510
4582,506
4583,507
4584,506
4585,505
4586,507
4587,507
4588,507
4589,507
4590,509
4591,505
4592,505
4593,508
4594,508
4595,508
4596,507
4597,508
4598,506
4599,509
4600,508
4601,508
4602,509
4603,508
4604,510
4605,510
4606,506
4607,507
4608,509
4609,507
4610,510
4611,507
4612,507
4613,507
4614,509
4615,507
4616,508
4617,506
4618,508
4619,508
4620,508
4621,508
4622,509
4623,507
4624,506
4625,509
4626,509
4627,506
4628,506
4629,507
4630,507
4631,509
4632,508
4633,507
4634,510
4635,508
4636,507
4637,509
4638,509
4639,509
4640,508
4641,508
4642,508
4643,509
4644,504
4645,506
4646,508
4647,508
4648,510
4649,507
4650,508
4651,510
4652,510
4653,508
4654,509
4655,510
4656,509
4657,505
4658,506
4659,506
4660,507
4661,505
4662,507
4663,507
4664,507
4665,510
4666,510
4667,508
4668,507
4669,507
4670,509
4671,506
4672,507
4673,508
4674,508
4675,508
4676,510
4677,508
4678,509
4679,509
4680,508
4681,507
4682,507
4683,509
4684,510
4685,507
4686,508
4687,507
4688,507
4689,504
4690,510
4691,510
4692,507
4693,508
4694,507
4695,507
4696,508
4697,510
4698,507
4699,508
4700,504
4701,508
4702,510
4703,510
4704,508
4705,505
4706,508
4707,506
4708,509
4709,508
4710,508
4711,509
4712,509
4713,507
4714,507
4715,509
4716,509
4717,507
4718,510
4719,508
4720,505
4721,509
4722,510
4723,508
4724,505
4725,506
4726,507
4727,506
4728,509
4729,508
4730,510
4731,508
4732,506
4733,509
4734,508
4735,510
4736,507
4737,507
4738,509
4739,509
4740,510
4741,507
4742,507
4743,508
4744,507
4745,507
4746,505
4747,506
4748,508
4749,508
4750,510
4751,507
4752,507
4753,510
4754,509
4755,510
4756,507
4757,510
4758,508
4759,506
4760,506
4761,505
4762,511
4763,510
4764,510
4765,507
4766,508
4767,508
4768,506
4769,508
4770,509
4771,507
4772,508
4773,510
4774,510
4775,509
4776,508
4777,509
4778,507
4779,507
4780,507
4781,506
4782,508
4783,508
4784,505
4785,507
4786,507
4787,508
4788,508
4789,507
4790,507
4791,507
4792,507
4793,510
4794,509
4795,508
4796,507
4797,509
4798,508
4799,508
4800,507
4801,508
4802,507
4803,507
4804,508
4805,507
4806,511
4807,508
4808,508
4809,507
4810,507
4811,508
4812,509
4813,508
4814,508
4815,508
4816,509
4817,505
4818,508
4819,508
4820,505
4821,507
4822,508
4823,510
4824,509
4825,509
4826,507
4827,508
4828,508
4829,505
4830,505
4831,508
4832,511
4833,509
4834,507
4835,510
4836,510
4837,508
4838,508
4839,506
4840,507
4841,508
4842,508
4843,508
4844,506
4845,508
4846,508
4847,509
4848,510
4849,509
4850,509
4851,506
4852,508
4853,508
4854,510
4855,508
4856,507
4857,508
4858,507
4859,506
4860,507
4861,508
4862,508
4863,509
4864,507
4865,509
4866,507
4867,507
4868,508
4869,507
4870,508
4871,508
4872,510
4873,507
4874,506
4875,509
4876,508
4877,504
4878,507
4879,509
4880,507
4881,508
4882,510
4883,511
4884,507
4885,508
4886,509
4887,510
4888,508
4889,509
4890,507
4891,507
4892,507
4893,507
4894,507
4895,509
4896,510
4897,509
4898,507
4899,508
4900,506
4901,507
4902,507
4903,508
4904,505
4905,508
4906,508
4907,508
4908,505
4909,508
4910,508
4911,510
4912,511
4913,507
4914,508
4915,507
4916,508
4917,508
4918,507
4919,509
4920,506
4921,504
4922,508
4923,511
4924,508
4925,508
4926,510
4927,509
4928,508
4929,508
4930,507
4931,511
4932,507
4933,504
4934,508
4935,505
4936,509
4937,508
4938,511
4939,509
4940,509
4941,507
4942,507
4943,507
4944,509
4945,508
4946,509
4947,508
4948,508
4949,509
4950,505
4951,505
4952,509
4953,509
4954,510
4955,509
4956,509
4957,507
4958,504
4959,507
4960,506
4961,508
4962,510
4963,507
4964,508
4965,506
4966,509
4967,508
4968,509
4969,505
4970,508
4971,510
4972,508
4973,508
4974,510
4975,509
4976,508
4977,505
4978,504
4979,509
4980,508
4981,507
4982,510
4983,510
4984,507
4985,509
4986,510
4987,510
4988,509
4989,508
4990,508
4991,508
4992,508
4993,507
4994,508
4995,508
4996,509
4997,508
4998,508
4999,508
5000,506
5001,507
5002,507
5003,507
5004,508
5005,509
5006,509
5007,507
5008,506
5009,509
5010,507
5011,508
5012,507
5013,509
5014,509
5015,510
5016,510
5017,508
5018,506
5019,507
5020,509
5021,508
5022,508
5023,507
5024,505
5025,506
5026,506
5027,508
5028,508
5029,509
5030,509
5031,508
5032,508
5033,509
5034,507
5035,508
5036,507
5037,508
5038,508
5039,508
5040,507
5041,508
5042,507
5043,509
5044,508
5045,507
5046,509
5047,509
5048,509
5049,510
5050,509
5051,511
5052,512
5053,510
5054,508
5055,507
5056,509
5057,507
5058,508
5059,509
5060,508
5061,508
5062,507
5063,507
5064,508
5065,510
5066,507
5067,508
5068,508
5069,506
5070,506
5071,507
5072,506
5073,509
5074,507
5075,507
5076,505
5077,508
5078,508
5079,511
5080,509
5081,506
5082,505
5083,510
5084,510
5085,507
5086,507
5087,510
5088,508
5089,507
5090,507
5091,507
5092,508
5093,508
5094,508
5095,509
5096,506
5097,508
5098,506
5099,506
5100,508
5101,509
5102,507
5103,509
5104,507
5105,508
5106,507
5107,508
5108,510
5109,508
5110,509
5111,508
5112,507
5113,506
5114,509
5115,510
5116,513
5117,509
5118,508
5119,505
5120,507
5121,508
5122,508
5123,507
5124,507
5125,506
5126,507
5127,508
5128,508
5129,509
5130,508
5131,510
5132,509
5133,511
5134,509
5135,508
5136,508
5137,506
5138,509
5139,511
5140,508
5141,507
5142,507
5143,506
5144,506
5145,507
5146,509
5147,508
5148,506
5149,507
5150,511
5151,509
5152,507
5153,505
5154,504
5155,508
5156,508
5157,509
5158,507
5159,508
5160,509
5161,508
5162,507
5163,510
5164,508
5165,509
5166,507
5167,508
5168,507
5169,508
5170,509
5171,506
5172,508
5173,508
5174,507
5175,506
5176,507
5177,510
5178,511
5179,509
5180,508
5181,505
5182,505
5183,505
5184,508
5185,510
5186,508
5187,508
5188,507
5189,506
5190,512
5191,510
5192,508
5193,508
5194,508
5195,506
5196,509
5197,508
5198,510
5199,507
5200,507
5201,507
5202,506
5203,507
5204,506
5205,510
5206,508
5207,508
5208,508
5209,507
5210,509
5211,508
5212,506
5213,507
5214,509
5215,508
5216,508
5217,505
5218,508
5219,508
5220,507
5221,508
5222,508
5223,507
5224,508
5225,506
5226,507
5227,507
5228,508
5229,509
5230,508
5231,506
5232,507
5233,510
5234,510
5235,508
5236,506
5237,508
5238,508
5239,506
5240,506
5241,509
5242,510
5243,510
5244,507
5245,508
5246,509
5247,507
5248,508
5249,509
5250,508
5251,507
5252,507
5253,510
5254,508
5255,507
5256,508
5257,507
5258,506
5259,508
5260,507
5261,509
5262,509
5263,508
5264,507
5265,509
5266,509
5267,508
5268,508
5269,508
5270,510
5271,508
5272,508
5273,507
5274,507
5275,507
5276,508
5277,509
5278,510
5279,511
5280,510
5281,508
5282,508
5283,508
5284,507
5285,506
5286,508
5287,508
5288,510
5289,508
5290,507
5291,509
5292,506
5293,505
5294,507
5295,508
5296,511
5297,508
5298,504
5299,507
5300,509
5301,508
5302,508
5303,508
5304,509
5305,506
5306,508
5307,508
5308,507
5309,508
5310,506
5311,508
5312,507
5313,507
5314,508
5315,508
5316,508
5317,509
5318,505
5319,509
5320,509
5321,506
5322,508
5323,508
5324,507
5325,508
5326,510
5327,508
5328,507
5329,509
5330,507
5331,507
5332,509
5333,508
5334,508
5335,510
5336,508
5337,509
5338,506
5339,507
5340,507
5341,507
5342,511
5343,509
5344,506
5345,508
5346,508
5347,507
5348,510
5349,507
5350,510
5351,507
5352,506
5353,507
5354,508
5355,509
5356,508
5357,508
5358,508
5359,508
5360,506
5361,507
5362,508
5363,509
5364,508
5365,508
5366,510
5367,509
5368,507
5369,505
5370,510
5371,509
5372,508
5373,509
5374,510
5375,509
5376,508
5377,509
5378,506
5379,506
5380,507
5381,509
5382,508
5383,505
5384,508
5385,508
5386,506
5387,509
5388,509
5389,508
5390,507
5391,508
5392,505
5393,507
5394,508
5395,508
5396,506
5397,506
5398,508
5399,507
5400,509
5401,508
5402,507
5403,509
5404,507
5405,508
5406,509
5407,508
5408,509
5409,508
5410,508
5411,507
5412,508
5413,507
5414,506
5415,509
5416,510
5417,508
5418,507
5419,507
5420,508
5421,510
5422,509
5423,511
5424,509
5425,507
5426,506
5427,507
5428,505
5429,504
5430,507
5431,506
5432,507
5433,506
5434,507
5435,508
5436,509
5437,510
5438,507
5439,508
5440,508
5441,506
5442,508
5443,508
5444,508
5445,506
5446,506
5447,506
5448,508
5449,507
5450,508
5451,509
5452,510
5453,508
5454,510
5455,507
5456,508
5457,507
5458,508
5459,510
5460,509
5461,506
5462,507
5463,510
5464,508
5465,508
5466,508
5467,507
5468,506
5469,508
5470,507
5471,508
5472,508
5473,507
5474,508
5475,509
5476,509
5477,507
5478,509
5479,508
5480,508
5481,509
5482,507
5483,507
5484,507
5485,509
5486,507
5487,510
5488,510
5489,508
5490,509
5491,507
5492,506
5493,506
5494,507
5495,508
5496,509
5497,508
5498,507
5499,507
5500,509
5501,509
5502,507
5503,508
5504,508
5505,506
5506,506
5507,507
5508,509
5509,509
5510,509
5511,508
5512,507
5513,509
5514,508
5515,511
5516,508
5517,509
5518,507
5519,508
5520,507
5521,508
5522,508
5523,508
5524,509
5525,507
5526,508
5527,506
5528,507
5529,508
5530,510
5531,508
5532,507
5533,507
5534,507
5535,507
5536,510
5537,508
5538,508
5539,509
5540,508
5541,509
5542,508
5543,509
5544,505
5545,508
5546,505
5547,504
5548,508
5549,507
5550,509
5551,511
5552,511
5553,508
5554,508
5555,509
5556,511
5557,510
5558,508
5559,508
5560,509
5561,508
5562,508
5563,507
5564,506
5565,508
5566,510
5567,505
5568,505
5569,507
5570,506
5571,509
5572,509
5573,508
5574,508
5575,506
5576,508
5577,510
5578,509
5579,510
5580,511
5581,509
5582,510
5583,509
5584,508
5585,507
5586,507
5587,508
5588,504
5589,508
5590,509
5591,510
5592,507
5593,506
5594,505
5595,507
5596,507
5597,506
5598,509
5599,507
5600,508
5601,506
5602,508
5603,510
5604,507
5605,509
5606,508
5607,505
5608,509
5609,508
5610,506
5611,508
5612,508
5613,509
5614,509
5615,506
5616,507
5617,507
5618,508
5619,508
5620,510
5621,507
5622,507
5623,510
5624,511
5625,509
5626,504
5627,508
5628,508
5629,508
5630,508
5631,504
5632,508
5633,508
5634,507
5635,504
5636,510
5637,510
5638,506
5639,506
5640,508
5641,508
5642,511
5643,507
5644,505
5645,509
5646,509
5647,507
5648,511
5649,509
5650,508
5651,508
5652,505
5653,508
5654,508
5655,508
5656,508
5657,506
5658,508
5659,507
5660,507
5661,508
5662,508
5663,507
5664,507
5665,507
5666,506
5667,507
5668,510
5669,508
5670,508
5671,507
5672,509
5673,508
5674,508
5675,507
5676,507
5677,507
5678,509
5679,506
5680,507
5681,508
5682,506
5683,510
5684,508
5685,507
5686,508
5687,509
5688,507
5689,509
5690,508
5691,507
5692,507
5693,507
5694,506
5695,508
5696,508
5697,508
5698,505
5699,508
5700,507
5701,509
5702,510
5703,509
5704,507
5705,506
5706,507
5707,508
5708,507
5709,507
5710,507
5711,508
5712,512
5713,511
5714,507
5715,508
5716,510
5717,510
5718,507
5719,505
5720,510
5721,507
5722,505
5723,507
5724,508
5725,508
5726,506
5727,505
5728,506
5729,509
5730,508
5731,508
5732,508
5733,508
5734,509
5735,508
5736,509
5737,508
5738,508
5739,508
5740,507
5741,508
5742,509
5743,507
5744,509
5745,507
5746,508
5747,506
5748,508
5749,508
5750,508
5751,509
5752,508
5753,508
5754,508
5755,508
5756,508
5757,507
5758,506
5759,509
5760,509
5761,510
5762,507
5763,507
5764,507
5765,508
5766,508
5767,505
5768,509
5769,507
5770,507
5771,507
5772,508
5773,508
5774,505
5775,506
5776,508
5777,507
5778,509
5779,508
5780,510
5781,507
5782,509
5783,511
5784,507
5785,505
5786,509
5787,511
5788,511
5789,511
5790,510
5791,511
5792,508
5793,506
5794,506
5795,508
5796,508
5797,508
5798,508
5799,505
5800,506
5801,508
5802,509
5803,508
5804,505
5805,507
5806,508
5807,508
5808,509
5809,509
5810,507
5811,506
5812,507
5813,508
5814,508
5815,508
5816,507
5817,505
5818,509
5819,509
5820,508
5821,506
5822,510
5823,507
5824,508
5825,506
5826,506
5827,511
5828,508
5829,506
5830,508
5831,507
5832,507
5833,508
5834,505
5835,508
5836,509
5837,509
5838,505
5839,506
5840,508
5841,506
5842,507
5843,507
5844,508
5845,509
5846,509
5847,508
5848,505
5849,504
5850,509
5851,508
5852,507
5853,509
5854,511
5855,509
5856,511
5857,508
5858,507
5859,508
5860,510
5861,508
5862,507
5863,509
5864,506
5865,508
5866,508
5867,509
5868,509
5869,509
5870,506
5871,508
5872,508
5873,509
5874,508
5875,508
5876,507
5877,506
5878,507
5879,508
5880,508
5881,509
5882,507
5883,507
5884,506
5885,509
5886,507
5887,507
5888,508
5889,508
5890,508
5891,507
5892,505
5893,509
5894,510
5895,508
5896,506
5897,510
5898,509
5899,508
5900,505
5901,508
5902,507
5903,509
5904,510
5905,511
5906,508
5907,509
5908,507
5909,507
5910,511
5911,508
5912,508
5913,507
5914,508
5915,507
5916,505
5917,506
5918,508
5919,510
5920,509
5921,508
5922,505
5923,504
5924,507
5925,509
5926,509
5927,505
5928,508
5929,507
5930,507
5931,509
5932,510
5933,509
5934,510
5935,510
5936,508
5937,508
5938,508
5939,509
5940,509
5941,507
5942,505
5943,509
5944,507
5945,508
5946,507
5947,509
5948,508
5949,507
5950,508
5951,507
5952,510
5953,507
5954,508
5955,508
5956,509
5957,508
5958,510
5959,508
5960,505
5961,507
5962,509
5963,508
5964,508
5965,508
5966,506
5967,505
5968,507
5969,507
5970,507
5971,510
5972,510
5973,511
5974,506
5975,508
5976,507
5977,508
5978,508
5979,509
5980,508
5981,508
5982,508
5983,507
5984,509
5985,508
5986,509
5987,509
5988,508
5989,507
5990,509
5991,507
5992,510
5993,508
5994,509
5995,507
5996,509
5997,508
5998,508
5999,507
6000,507
6001,509
6002,510
6003,506
6004,506
6005,505
6006,507
6007,509
6008,509
6009,507
6010,507
6011,509
6012,508
6013,511
6014,505
6015,505
6016,507
6017,508
6018,508
6019,509
6020,510
6021,509
6022,508
6023,508
6024,507
6025,508
6026,509
6027,507
6028,505
6029,508
6030,510
6031,510
6032,506
6033,509
6034,508
6035,506
6036,508
6037,507
6038,507
6039,511
6040,506
6041,507
6042,507
6043,509
6044,508
6045,510
6046,509
6047,508
6048,510
6049,507
6050,508
6051,508
6052,508
6053,508
6054,509
6055,509
6056,507
6057,507
6058,505
6059,506
6060,508
6061,508
6062,507
6063,505
6064,507
6065,507
6066,510
6067,512
6068,511
6069,508
6070,508
6071,507
6072,508
6073,507
6074,508
6075,509
6076,507
6077,505
6078,506
6079,509
6080,508
6081,510
6082,505
6083,507
6084,508
6085,509
6086,509
6087,507
6088,507
6089,508
6090,507
6091,509
6092,510
6093,508
6094,508
6095,509
6096,509
6097,508
6098,511
6099,508
6100,509
6101,506
6102,508
6103,509
6104,508
6105,508
6106,505
6107,504
6108,507
6109,507
6110,510
6111,508
6112,508
6113,506
6114,509
6115,507
6116,508
6117,507
6118,507
6119,507
6120,510
6121,511
6122,510
6123,508
6124,506
6125,506
6126,506
6127,508
6128,508
6129,507
6130,510
6131,508
6132,508
6133,507
6134,506
6135,507
6136,508
6137,509
6138,511
6139,509
6140,507
6141,508
6142,508
6143,508
6144,508
6145,508
6146,510
6147,512
6148,512
6149,511
6150,510
6151,510
6152,508
6153,507
6154,508
6155,507
6156,505
6157,506
6158,507
6159,509
6160,508
6161,505
6162,504
6163,506
6164,507
6165,510
6166,510
6167,507
6168,507
6169,507
6170,507
6171,508
6172,510
6173,506
6174,506
6175,508
6176,509
6177,509
6178,508
6179,508
6180,508
6181,507
6182,507
6183,507
6184,508
6185,507
6186,507
6187,507
6188,508
6189,505
6190,506
6191,508
6192,508
6193,507
6194,508
6195,507
6196,510
6197,507
6198,509
6199,511
6200,508
6201,507
6202,508
6203,509
6204,508
6205,508
6206,510
6207,507
6208,507
6209,505
6210,507
6211,508
6212,510
6213,510
6214,508
6215,509
6216,506
6217,505
6218,507
6219,508
6220,508
6221,510
6222,507
6223,507
6224,507
6225,508
6226,508
6227,507
6228,510
6229,508
6230,508
6231,507
6232,508
6233,508
6234,508
6235,508
6236,509
6237,509
6238,507
6239,508
6240,508
6241,507
6242,507
6243,508
6244,505
6245,508
6246,509
6247,508
6248,507
6249,506
6250,508
6251,510
6252,510
6253,508
6254,504
6255,507
6256,509
6257,509
6258,507
6259,508
6260,507
6261,505
6262,509
6263,508
6264,508
6265,505
6266,507
6267,507
6268,510
6269,508
6270,508
6271,508
6272,508
6273,509
6274,506
6275,507
6276,508
6277,505
6278,505
6279,506
6280,510
6281,509
6282,507
6283,507
6284,507
6285,509
6286,508
6287,510
6288,508
6289,508
6290,507
6291,507
6292,507
6293,507
6294,507
6295,509
6296,508
6297,508
6298,509
6299,510
6300,508
6301,505
6302,508
6303,506
6304,505
6305,508
6306,508
6307,510
6308,508
6309,508
6310,507
6311,508
6312,510
6313,509
6314,507
6315,507
6316,508
6317,507
6318,507
6319,508
6320,508
6321,508
6322,508
6323,507
6324,507
6325,508
6326,508
6327,508
6328,506
6329,507
6330,510
6331,509
6332,506
6333,509
6334,510
6335,510
6336,508
6337,508
6338,508
6339,508
6340,508
6341,506
6342,507
6343,508
6344,507
6345,508
6346,510
6347,512
6348,509
6349,507
6350,507
6351,507
6352,508
6353,507
6354,509
6355,508
6356,508
6357,507
6358,508
6359,508
6360,507
6361,505
6362,506
6363,508
6364,510
6365,508
6366,506
6367,509
6368,511
6369,511
6370,508
6371,510
6372,510
6373,509
6374,506
6375,509
6376,508
6377,505
6378,508
6379,508
6380,508
6381,512
6382,508
6383,507
6384,506
6385,507
6386,509
6387,509
6388,505
6389,505
6390,506
6391,506
6392,509
6393,509
6394,509
6395,507
6396,508
6397,506
6398,510
6399,509
6400,508
6401,507
6402,507
6403,507
6404,508
6405,508
6406,505
6407,504
6408,505
6409,508
6410,508
6411,506
6412,509
6413,509
6414,508
6415,508
6416,508
6417,508
6418,507
6419,506
6420,509
6421,509
6422,508
6423,511
6424,507
6425,507
6426,508
6427,509
6428,508
6429,508
6430,507
6431,509
6432,508
6433,506
6434,508
6435,508
6436,509
6437,508
6438,508
6439,509
6440,508
6441,507
6442,510
6443,508
6444,510
6445,508
6446,508
6447,507
6448,507
6449,508
6450,508
6451,508
6452,506
6453,508
6454,506
6455,508
6456,506
6457,508
6458,508
6459,508
6460,508
6461,508
6462,506
6463,507
6464,508
6465,508
6466,509
6467,508
6468,508
6469,508
6470,508
6471,507
6472,506
6473,509
6474,508
6475,506
6476,507
6477,505
6478,508
6479,507
6480,509
6481,508
6482,507
6483,507
6484,509
6485,511
6486,508
6487,508
6488,508
6489,509
6490,509
6491,506
6492,508
6493,508
6494,508
6495,508
6496,506
6497,507
6498,508
6499,507
6500,508
6501,508
6502,509
6503,508
6504,507
6505,509
6506,505
6507,507
6508,505
6509,508
6510,510
6511,509
6512,508
6513,508
6514,505
6515,507
6516,508
6517,508
6518,509
6519,507
6520,508
6521,507
6522,506
6523,507
6524,508
6525,510
6526,510
6527,509
6528,509
6529,507
6530,506
6531,507
6532,508
6533,508
6534,507
6535,508
6536,508
6537,509
6538,506
6539,508
6540,508
6541,506
6542,508
6543,507
6544,508
6545,508
6546,509
6547,511
6548,510
6549,509
6550,508
6551,508
6552,508
6553,509
6554,507
6555,507
6556,505
6557,506
6558,510
6559,510
6560,504
6561,507
6562,508
6563,508
6564,510
6565,508
6566,506
6567,508
6568,507
6569,509
6570,508
6571,508
6572,509
6573,509
6574,508
6575,506
6576,509
6577,507
6578,507
6579,510
6580,508
6581,507
6582,508
6583,509
6584,511
6585,511
6586,509
6587,510
6588,508
6589,508
6590,508
6591,508
6592,508
6593,509
6594,507
6595,509
6596,508
6597,505
6598,507
6599,508
6600,508
6601,509
6602,508
6603,508
6604,509
6605,508
6606,508
6607,507
6608,507
6609,506
6610,508
6611,509
6612,506
6613,509
6614,508
6615,508
6616,507
6617,507
6618,508
6619,505
6620,510
6621,507
6622,508
6623,510
6624,509
6625,507
6626,508
6627,507
6628,508
6629,508
6630,508
6631,505
6632,507
6633,507
6634,506
6635,508
6636,505
6637,508
6638,509
6639,512
6640,508
6641,510
6642,509
6643,506
6644,505
6645,506
6646,509
6647,508
6648,507
6649,508
6650,508
6651,507
6652,505
6653,508
6654,509
6655,509
6656,508
6657,509
6658,508
6659,509
6660,507
6661,507
6662,505
6663,510
6664,507
6665,510
6666,507
6667,506
6668,508
6669,506
6670,508
6671,512
6672,511
6673,510
6674,510
6675,507
6676,508
6677,509
6678,508
6679,508
6680,510
6681,507
6682,508
6683,506
6684,506
6685,507
6686,506
6687,507
6688,505
6689,506
6690,507
6691,506
6692,509
6693,509
6694,506
6695,509
6696,509
6697,510
6698,507
6699,508
6700,508
6701,508
6702,508
6703,508
6704,508
6705,509
6706,507
6707,508
6708,510
6709,508
6710,508
6711,506
6712,508
6713,509
6714,510
6715,508
6716,509
6717,508
6718,508
6719,507
6720,507
6721,508
6722,508
6723,507
6724,506
6725,508
6726,508
6727,508
6728,506
6729,508
6730,509
6731,509
6732,509
6733,506
6734,506
6735,508
6736,509
6737,507
6738,507
6739,508
6740,509
6741,507
6742,507
6743,508
6744,508
6745,506
6746,506
6747,507
6748,510
6749,509
6750,509
6751,509
6752,507
6753,509
6754,506
6755,507
6756,508
6757,508
6758,509
6759,507
6760,510
6761,507
6762,509
6763,508
6764,508
6765,507
6766,506
6767,504
6768,507
6769,507
6770,507
6771,507
6772,506
6773,507
6774,508
6775,507
6776,508
6777,509
6778,508
6779,508
6780,507
6781,507
6782,510
6783,509
6784,509
6785,509
6786,509
6787,509
6788,508
6789,507
6790,505
6791,505
6792,502
6793,509
6794,511
6795,509
6796,508
6797,508
6798,506
6799,509
6800,508
6801,507
6802,508
6803,507
6804,509
6805,508
6806,512
6807,508
6808,505
6809,506
6810,510
6811,507
6812,508
6813,508
6814,512
6815,509
6816,509
6817,510
6818,507
6819,507
6820,508
6821,506
6822,504
6823,509
6824,509
6825,505
6826,507
6827,509
6828,507
6829,507
6830,508
6831,508
6832,507
6833,505
6834,506
6835,508
6836,509
6837,508
6838,509
6839,508
6840,508
6841,507
6842,506
6843,507
6844,509
6845,508
6846,507
6847,507
6848,510
6849,510
6850,508
6851,509
6852,508
6853,510
6854,510
6855,508
6856,506
6857,506
6858,507
6859,508
6860,511
6861,507
6862,503
6863,508
6864,510
6865,511
6866,508
6867,504
6868,505
6869,506
6870,507
6871,509
6872,508
6873,507
6874,508
6875,508
6876,508
6877,508
6878,508
6879,508
6880,508
6881,507
6882,508
6883,508
6884,507
6885,507
6886,510
6887,508
6888,508
6889,510
6890,507
6891,508
6892,506
6893,508
6894,508
6895,506
6896,505
6897,508
6898,505
6899,507
6900,511
6901,512
6902,510
6903,508
6904,507
6905,510
6906,510
6907,504
6908,505
6909,509
6910,511
6911,510
6912,511
6913,508
6914,509
6915,507
6916,508
6917,507
6918,509
6919,506
6920,508
6921,508
6922,507
6923,509
6924,506
6925,506
6926,507
6927,511
6928,509
6929,507
6930,507
6931,508
6932,509
6933,508
6934,508
6935,508
6936,508
6937,507
6938,509
6939,509
6940,509
6941,507
6942,506
6943,508
6944,507
6945,507
6946,508
6947,508
6948,508
6949,509
6950,509
6951,508
6952,509
6953,509
6954,508
6955,509
6956,508
6957,507
6958,505
6959,506
6960,507
6961,507
6962,506
6963,508
6964,508
6965,509
6966,506
6967,508
6968,507
6969,506
6970,508
6971,508
6972,507
6973,508
6974,508
6975,507
6976,507
6977,510
6978,508
6979,507
6980,508
6981,509
6982,510
6983,509
6984,508
6985,508
6986,508
6987,508
6988,507
6989,508
6990,508
6991,509
6992,508
6993,506
6994,507
6995,507
6996,508
6997,507
6998,508
6999,508
7000,508
7001,512
7002,510
7003,506
7004,506
7005,509
7006,510
7007,508
7008,507
7009,508
7010,508
7011,508
7012,505
7013,508
7014,510
7015,505
7016,507
7017,507
7018,508
7019,511
7020,508
7021,509
7022,508
7023,507
7024,507
7025,506
7026,509
7027,511
7028,508
7029,508
7030,509
7031,508
7032,508
7033,508
7034,505
7035,508
7036,508
7037,507
7038,508
7039,510
7040,505
7041,507
7042,508
7043,508
7044,509
7045,510
7046,508
7047,505
7048,507
7049,508
7050,511
7051,512
7052,508
7053,507
7054,509
7055,509
7056,508
7057,507
7058,508
7059,506
7060,507
7061,508
7062,510
7063,509
7064,508
7065,507
7066,506
7067,509
7068,509
7069,505
7070,507
7071,508
7072,508
7073,507
7074,505
7075,506
7076,506
7077,509
7078,509
7079,510
7080,508
7081,510
7082,509
7083,510
7084,508
7085,507
7086,508
7087,508
7088,508
7089,507
7090,505
7091,507
7092,510
7093,510
7094,509
7095,508
7096,508
7097,508
7098,508
7099,507
7100,508
7101,505
7102,505
7103,508
7104,507
7105,507
7106,510
7107,508
7108,505
7109,506
7110,507
7111,510
7112,507
7113,508
7114,508
7115,508
7116,510
7117,507
7118,506
7119,508
7120,508
7121,507
7122,508
7123,509
7124,507
7125,508
7126,508
7127,508
7128,509
7129,509
7130,508
7131,508
7132,506
7133,509
7134,507
7135,511
7136,511
7137,511
7138,508
7139,508
7140,508
7141,506
7142,505
7143,507
7144,506
7145,506
7146,505
7147,508
7148,510
7149,508
7150,508
7151,509
7152,509
7153,508
7154,509
7155,508
7156,507
7157,508
7158,510
7159,508
7160,507
7161,506
7162,507
7163,510
7164,508
7165,510
7166,508
7167,507
7168,507
7169,506
7170,507
7171,507
7172,509
7173,511
7174,507
7175,505
7176,506
7177,508
7178,506
7179,507
7180,507
7181,507
7182,508
7183,508
7184,505
7185,509
7186,505
7187,509
7188,509
7189,508
7190,508
7191,510
7192,508
7193,508
7194,506
7195,506
7196,510
7197,506
7198,508
7199,509
7200,507
7201,509
7202,509
7203,508
7204,507
7205,507
7206,508
7207,509
7208,508
7209,508
7210,508
7211,509
7212,509
7213,509
7214,510
7215,508
7216,507
7217,508
7218,507
7219,509
7220,508
7221,507
7222,508
7223,509
7224,509
7225,507
7226,508
7227,509
7228,507
7229,506
7230,509
7231,508
7232,507
7233,506
7234,510
7235,508
7236,508
7237,507
7238,505
7239,506
7240,505
7241,507
7242,507
7243,508
7244,508
7245,508
7246,508
7247,508
7248,507
7249,508
7250,508
7251,508
7252,507
7253,508
7254,511
7255,508
7256,508
7257,509
7258,507
7259,506
7260,507
7261,508
7262,507
7263,507
7264,506
7265,510
7266,510
7267,511
7268,507
7269,509
7270,508
7271,509
7272,510
7273,505
7274,507
7275,507
7276,505
7277,509
7278,508
7279,509
7280,508
7281,509
7282,508
7283,508
7284,507
7285,507
7286,506
7287,509
7288,509
7289,507
7290,509
7291,508
7292,508
7293,511
7294,508
7295,507
7296,508
7297,505
7298,508
7299,508
7300,507
7301,510
7302,509
7303,506
7304,506
7305,508
7306,506
7307,508
7308,506
7309,506
7310,509
7311,506
7312,509
7313,511
7314,508
7315,510
7316,508
7317,508
7318,508
7319,508
7320,509
7321,507
7322,507
7323,507
7324,507
7325,508
7326,505
7327,506
7328,508
7329,506
7330,508
7331,508
7332,508
7333,510
7334,509
7335,508
7336,507
7337,509
7338,510
7339,509
7340,508
7341,507
7342,507
7343,508
7344,508
7345,509
7346,511
7347,508
7348,510
7349,506
7350,507
7351,507
7352,507
7353,507
7354,509
7355,508
7356,509
7357,505
7358,507
7359,508
7360,507
7361,510
7362,508
7363,508
7364,507
7365,508
7366,508
7367,510
7368,512
7369,508
7370,508
7371,508
7372,509
7373,507
7374,505
7375,509
7376,509
7377,507
7378,506
7379,506
7380,508
7381,510
7382,509
7383,510
7384,507
7385,508
7386,505
7387,508
7388,508
7389,508
7390,510
7391,511
7392,510
7393,506
7394,506
7395,508
7396,506
7397,510
7398,509
7399,509
7400,508
7401,508
7402,507
7403,507
7404,508
7405,508
7406,508
7407,506
7408,507
7409,506
7410,509
7411,508
7412,508
7413,507
7414,509
7415,508
7416,510
7417,510
7418,509
7419,507
7420,508
7421,508
7422,508
7423,509
7424,507
7425,507
7426,507
7427,506
7428,508
7429,508
7430,507
7431,507
7432,508
7433,508
7434,508
7435,508
7436,509
7437,507
7438,508
7439,508
7440,508
7441,507
7442,507
7443,509
7444,506
7445,509
7446,508
7447,509
7448,508
7449,508
7450,508
7451,508
7452,508
7453,508
7454,510
7455,507
7456,510
7457,507
7458,508
7459,505
7460,506
7461,508
7462,508
7463,508
7464,508
7465,505
7466,507
7467,507
7468,507
7469,512
7470,509
7471,508
7472,508
7473,508
7474,509
7475,508
7476,510
7477,509
7478,508
7479,507
7480,508
7481,508
7482,507
7483,507
7484,508
7485,508
7486,508
7487,507
7488,507
7489,507
7490,509
7491,508
7492,507
7493,507
7494,508
7495,507
7496,508
7497,509
7498,508
7499,508
7500,507
7501,508
7502,508
7503,509
7504,509
7505,508
7506,506
7507,507
7508,508
7509,508
7510,508
7511,508
7512,508
7513,507
7514,507
7515,506
7516,508
7517,508
7518,505
7519,506
7520,508
7521,512
7522,511
7523,508
7524,508
7525,505
7526,510
7527,506
7528,507
7529,507
7530,506
7531,508
7532,507
7533,510
7534,508
7535,509
7536,511
7537,509
7538,507
7539,505
7540,506
7541,510
7542,507
7543,508
7544,508
7545,508
7546,508
7547,509
7548,509
7549,509
7550,508
7551,507
7552,510
7553,510
7554,507
7555,505
7556,508
7557,506
7558,505
7559,508
7560,506
7561,505
7562,508
7563,510
7564,509
7565,509
7566,511
7567,507
7568,508
7569,508
7570,507
7571,509
7572,508
7573,509
7574,507
7575,508
7576,506
7577,507
7578,509
7579,506
7580,508
7581,510
7582,509
7583,508
7584,507
7585,508
7586,508
7587,508
7588,508
7589,508
7590,508
7591,505
7592,507
7593,507
7594,505
7595,507
7596,507
7597,508
7598,509
7599,509
7600,510
7601,509
7602,507
7603,508
7604,508
7605,508
7606,508
7607,508
7608,508
7609,507
7610,505
7611,507
7612,508
7613,508
7614,508
7615,506
7616,507
7617,508
7618,510
7619,508
7620,507
7621,510
7622,510
7623,507
7624,505
7625,508
7626,507
7627,507
7628,508
7629,509
7630,508
7631,506
7632,504
7633,509
7634,507
7635,507
7636,510
7637,510
7638,509
7639,508
7640,507
7641,506
7642,507
7643,507
7644,509
7645,507
7646,508
7647,508
7648,507
7649,505
7650,507
7651,507
7652,508
7653,509
7654,506
7655,509
7656,507
7657,508
7658,508
7659,510
7660,507
7661,507
7662,510
7663,508
7664,509
7665,509
7666,509
7667,508
7668,508
7669,507
7670,508
7671,506
7672,508
7673,511
7674,508
7675,509
7676,506
7677,506
7678,506
7679,505
7680,505
7681,507
7682,507
7683,508
7684,511
7685,510
7686,507
7687,505
7688,509
7689,508
7690,509
7691,509
7692,508
7693,507
7694,509
7695,508
7696,508
7697,508
7698,509
7699,508
7700,505
7701,508
7702,509
7703,508
7704,507
7705,507
7706,505
7707,508
7708,509
7709,509
7710,509
7711,509
7712,508
7713,507
7714,505
7715,509
7716,509
7717,509
7718,509
7719,508
7720,509
7721,506
7722,506
7723,506
7724,508
7725,509
7726,509
7727,508
7728,507
7729,507
7730,508
7731,508
7732,510
7733,508
7734,506
7735,508
7736,509
7737,505
7738,508
7739,509
7740,507
7741,509
7742,508
7743,506
7744,510
7745,507
7746,509
7747,508
7748,507
7749,508
7750,508
7751,510
7752,509
7753,511
7754,508
7755,506
7756,507
7757,507
7758,508
7759,509
7760,507
7761,506
7762,507
7763,505
7764,509
7765,508
7766,509
7767,510
7768,509
7769,509
7770,508
7771,510
7772,508
7773,508
7774,505
7775,506
7776,507
7777,509
7778,509
7779,509
7780,508
7781,507
7782,509
7783,509
7784,507
7785,508
7786,507
7787,508
7788,509
7789,508
7790,508
7791,507
7792,507
7793,507
7794,508
7795,510
7796,509
7797,507
7798,508
7799,509
7800,508
7801,507
7802,509
7803,509
7804,508
7805,506
7806,507
7807,508
7808,507
7809,506
7810,508
7811,508
7812,507
7813,508
7814,507
7815,510
7816,507
7817,508
7818,509
7819,507
7820,507
7821,508
7822,507
7823,507
7824,508
7825,506
7826,507
7827,509
7828,508
7829,508
7830,507
7831,509
7832,506
7833,507
7834,508
7835,508
7836,507
7837,509
7838,509
7839,508
7840,508
7841,507
7842,506
7843,508
7844,509
7845,507
7846,507
7847,508
7848,507
7849,508
7850,508
7851,508
7852,506
7853,507
7854,508
7855,508
7856,508
7857,508
7858,510
7859,508
7860,508
7861,507
7862,508
7863,508
7864,508
7865,510
7866,508
7867,506
7868,506
7869,507
7870,507
7871,509
7872,510
7873,507
7874,507
7875,508
7876,508
7877,507
7878,508
7879,509
7880,509
7881,506
7882,509
7883,508
7884,509
7885,506
7886,507
7887,508
7888,508
7889,507
7890,508
7891,507
7892,509
7893,508
7894,507
7895,507
7896,508
7897,508
7898,508
7899,507
7900,506
7901,507
7902,511
7903,509
7904,507
7905,508
7906,508
7907,513
7908,507
7909,508
7910,509
7911,508
7912,509
7913,506
7914,507
7915,506
7916,506
7917,505
7918,509
7919,508
7920,509
7921,510
7922,506
7923,507
7924,508
7925,507
7926,507
7927,508
7928,510
7929,508
7930,507
7931,508
7932,509
7933,508
7934,510
7935,507
7936,506
7937,508
7938,508
7939,507
7940,507
7941,510
7942,509
7943,509
7944,508
7945,507
7946,507
7947,509
7948,508
7949,508
7950,505
7951,508
7952,508
7953,509
7954,507
7955,510
7956,509
7957,507
7958,508
7959,508
7960,507
7961,508
7962,510
7963,508
7964,508
7965,508
7966,509
7967,510
7968,508
7969,508
7970,509
7971,508
7972,507
7973,506
7974,507
7975,508
7976,508
7977,510
7978,509
7979,507
7980,508
7981,504
7982,506
7983,512
7984,509
7985,504
7986,507
7987,511
7988,510
7989,507
7990,508
7991,507
7992,508
7993,507
7994,507
7995,508
7996,506
7997,508
7998,507
7999,505
8000,508
8001,508
8002,508
8003,508
8004,510
8005,506
8006,506
8007,508
8008,507
8009,508
8010,508
8011,509
8012,508
8013,508
8014,506
8015,508
8016,505
8017,506
8018,508
8019,508
8020,510
8021,509
8022,508
8023,509
8024,508
8025,506
8026,505
8027,509
8028,508
8029,507
8030,508
8031,510
8032,507
8033,510
8034,508
8035,510
8036,508
8037,507
8038,507
8039,507
8040,509
8041,507
8042,508
8043,510
8044,507
8045,509
8046,510
8047,508
8048,508
8049,507
8050,509
8051,507
8052,508
8053,508
8054,511
8055,509
8056,506
8057,505
8058,506
8059,506
8060,509
8061,508
8062,508
8063,507
8064,507
8065,507
8066,508
8067,508
8068,508
8069,507
8070,510
8071,508
8072,507
8073,508
8074,509
8075,508
8076,510
8077,507
8078,505
8079,508
8080,507
8081,508
8082,508
8083,509
8084,508
8085,508
8086,507
8087,507
8088,508
8089,507
8090,508
8091,508
8092,507
8093,510
8094,509
8095,507
8096,508
8097,508
8098,509
8099,506
8100,509
8101,506
8102,510
8103,508
8104,506
8105,507
8106,506
8107,507
8108,507
8109,507
8110,510
8111,508
8112,508
8113,507
8114,509
8115,508
8116,508
8117,506
8118,508
8119,508
8120,509
8121,508
8122,507
8123,509
8124,509
8125,508
8126,507
8127,508
8128,511
8129,508
8130,507
8131,506
8132,508
8133,509
8134,507
8135,509
8136,508
8137,509
8138,507
8139,505
8140,506
8141,510
8142,510
8143,508
8144,508
8145,508
8146,505
8147,508
8148,507
8149,506
8150,509
8151,508
8152,507
8153,508
8154,507
8155,507
8156,508
8157,509
8158,508
8159,508
8160,507
8161,508
8162,508
8163,508
8164,507
8165,509
8166,508
8167,507
8168,509
8169,508
8170,511
8171,508
8172,507
8173,505
8174,508
8175,510
8176,508
8177,506
8178,510
8179,507
8180,506
8181,508
8182,508
8183,509
8184,509
8185,508
8186,508
8187,508
8188,508
8189,507
8190,507
8191,508
8192,505
8193,505
8194,507
8195,506
8196,506
8197,508
8198,509
8199,507
8200,509
8201,508
8202,509
8203,511
8204,508
8205,508
8206,508
8207,508
8208,511
8209,507
8210,506
8211,508
8212,510
8213,510
8214,507
8215,506
8216,506
8217,507
8218,509
8219,508
8220,507
8221,508
8222,508
8223,506
8224,507
8225,507
8226,507
8227,507
8228,507
8229,508
8230,508
8231,509
8232,508
8233,509
8234,505
8235,510
8236,512
8237,508
8238,505
8239,507
8240,508
8241,507
8242,505
8243,508
8244,508
8245,507
8246,509
8247,511
8248,509
8249,508
8250,509
8251,508
8252,506
8253,507
8254,508
8255,509
8256,509
8257,507
8258,509
8259,508
8260,509
8261,508
8262,505
8263,509
8264,507
8265,509
8266,511
8267,507
8268,507
8269,506
8270,510
8271,508
8272,507
8273,508
8274,509
8275,508
8276,507
8277,508
8278,507
8279,508
8280,507
8281,509
8282,509
8283,508
8284,508
8285,508
8286,508
8287,507
8288,506
8289,506
8290,505
8291,506
8292,507
8293,507
8294,504
8295,507
8296,509
8297,506
8298,510
8299,511
8300,509
8301,510
8302,508
8303,509
8304,508
8305,507
8306,506
8307,511
8308,509
8309,508
8310,508
8311,508
8312,509
8313,508
8314,505
8315,508
8316,509
8317,508
8318,506
8319,508
8320,508
8321,509
8322,510
8323,509
8324,505
8325,506
8326,507
8327,507
8328,507
8329,509
8330,509
8331,510
8332,508
8333,508
8334,505
8335,506
8336,507
8337,511
8338,508
8339,505
8340,507
8341,508
8342,509
8343,508
8344,507
8345,510
8346,510
8347,510
8348,509
8349,508
8350,507
8351,507
8352,507
8353,509
8354,506
8355,510
8356,508
8357,506
8358,508
8359,506
8360,508
8361,507
8362,509
8363,507
8364,505
8365,506
8366,510
8367,508
8368,507
8369,508
8370,508
8371,511
8372,509
8373,509
8374,507
8375,508
8376,509
8377,506
8378,509
8379,508
8380,507
8381,507
8382,506
8383,508
8384,508
8385,509
8386,508
8387,509
8388,511
8389,511
8390,504
8391,504
8392,507
8393,509
8394,506
8395,507
8396,508
8397,509
8398,508
8399,506
8400,508
8401,508
8402,511
8403,508
8404,507
8405,509
8406,507
8407,507
8408,507
8409,505
8410,508
8411,510
8412,509
8413,508
8414,508
8415,509
8416,507
8417,507
8418,508
8419,507
8420,510
8421,508
8422,508
8423,506
8424,508
8425,508
8426,509
8427,509
8428,511
8429,507
8430,507
8431,509
8432,505
8433,509
8434,511
8435,511
8436,506
8437,510
8438,508
8439,505
8440,505
8441,507
8442,507
8443,508
8444,510
8445,508
8446,508
8447,507
8448,508
8449,506
8450,507
8451,510
8452,509
8453,509
8454,510
8455,509
8456,507
8457,508
8458,508
8459,508
8460,508
8461,508
8462,508
8463,506
8464,507
8465,508
8466,508
8467,508
8468,510
8469,508
8470,507
8471,508
8472,508
8473,506
8474,508
8475,508
8476,508
8477,509
8478,507
8479,508
8480,505
8481,508
8482,505
8483,509
8484,509
8485,508
8486,508
8487,507
8488,505
8489,507
8490,508
8491,507
8492,507
8493,508
8494,508
8495,507
8496,505
8497,508
8498,509
8499,507
8500,509
8501,507
8502,507
8503,508
8504,507
8505,509
8506,507
8507,508
8508,506
8509,507
8510,508
8511,506
8512,508
8513,508
8514,509
8515,511
8516,508
8517,507
8518,508
8519,507
8520,508
8521,509
8522,508
8523,506
8524,508
8525,510
8526,510
8527,507
8528,506
8529,505
8530,508
8531,507
8532,509
8533,510
8534,507
8535,507
8536,508
8537,510
8538,508
8539,510
8540,510
8541,507
8542,508
8543,507
8544,507
8545,508
8546,507
8547,507
8548,510
8549,510
8550,508
8551,506
8552,506
8553,507
8554,506
8555,506
8556,507
8557,507
8558,507
8559,508
8560,506
8561,508
8562,510
8563,511
8564,507
8565,508
8566,508
8567,509
8568,508
8569,505
8570,509
8571,510
8572,508
8573,507
8574,508
8575,507
8576,511
8577,508
8578,509
8579,506
8580,505
8581,509
8582,510
8583,508
8584,507
8585,509
8586,507
8587,508
8588,508
8589,509
8590,509
8591,507
8592,505
8593,509
8594,508
8595,508
8596,510
8597,510
8598,508
8599,504
8600,505
8601,505
8602,507
8603,509
8604,508
8605,506
8606,508
8607,507
8608,508
8609,508
8610,508
8611,507
8612,508
8613,508
8614,507
8615,507
8616,508
8617,509
8618,510
8619,506
8620,507
8621,507
8622,506
8623,508
8624,509
8625,508
8626,507
8627,508
8628,508
8629,507
8630,508
8631,510
8632,507
8633,508
8634,509
8635,510
8636,508
8637,508
8638,508
8639,508
8640,508
8641,510
8642,508
8643,507
8644,507
8645,507
8646,509
8647,508
8648,507
8649,507
8650,506
8651,508
8652,509
8653,511
8654,508
8655,508
8656,507
8657,506
8658,507
8659,510
8660,508
8661,508
8662,508
8663,508
8664,509
8665,508
8666,507
8667,507
8668,508
8669,508
8670,508
8671,507
8672,507
8673,508
8674,507
8675,508
8676,507
8677,506
8678,507
8679,507
8680,505
8681,507
8682,508
8683,509
8684,509
8685,510
8686,509
8687,507
8688,507
8689,510
8690,509
8691,509
8692,507
8693,505
8694,507
8695,508
8696,507
8697,509
8698,508
8699,508
8700,507
8701,508
8702,507
8703,507
8704,508
8705,507
8706,508
8707,508
8708,508
8709,507
8710,508
8711,508
8712,506
8713,508
8714,509
8715,508
8716,507
8717,508
8718,511
8719,507
8720,505
8721,507
8722,509
8723,509
8724,509
8725,508
8726,509
8727,507
8728,505
8729,505
8730,508
8731,509
8732,508
8733,507
8734,508
8735,507
8736,508
8737,507
8738,508
8739,507
8740,506
8741,506
8742,508
8743,508
8744,507
8745,507
8746,508
8747,509
8748,509
8749,508
8750,508
8751,508
8752,505
8753,508
8754,508
8755,508
8756,508
8757,509
8758,507
8759,506
8760,509
8761,511
8762,510
8763,508
8764,508
8765,507
8766,508
8767,508
8768,508
8769,507
8770,507
8771,507
8772,507
8773,510
8774,510
8775,510
8776,507
8777,507
8778,508
8779,508
8780,508
8781,508
8782,509
8783,507
8784,507
8785,508
8786,505
8787,506
8788,508
8789,507
8790,508
8791,508
8792,508
8793,507
8794,506
8795,508
8796,508
8797,507
8798,510
8799,508
8800,510
8801,507
8802,508
8803,508
8804,507
8805,506
8806,509
8807,507
8808,510
8809,508
8810,508
8811,507
8812,508
8813,510
8814,509
8815,506
8816,507
8817,508
8818,507
8819,507
8820,506
8821,509
8822,509
8823,507
8824,507
8825,510
8826,508
8827,508
8828,507
8829,510
8830,507
8831,507
8832,507
8833,510
8834,508
8835,507
8836,509
8837,511
8838,509
8839,506
8840,508
8841,508
8842,509
8843,508
8844,507
8845,508
8846,510
8847,510
8848,509
8849,508
8850,507
8851,507
8852,505
8853,506
8854,507
8855,507
8856,509
8857,507
8858,507
8859,506
8860,508
8861,508
8862,509
8863,509
8864,507
8865,509
8866,508
8867,505
8868,509
8869,508
8870,508
8871,508
8872,509
8873,507
8874,507
8875,508
8876,509
8877,508
8878,508
8879,508
8880,509
8881,506
8882,507
8883,509
8884,509
8885,510
8886,507
8887,510
8888,509
8889,510
8890,506
8891,508
8892,508
8893,508
8894,506
8895,507
8896,505
8897,507
8898,508
8899,506
8900,509
8901,508
8902,508
8903,508
8904,510
8905,508
8906,509
8907,508
8908,508
8909,506
8910,507
8911,507
8912,507
8913,506
8914,508
8915,508
8916,508
8917,508
8918,510
8919,510
8920,509
8921,507
8922,507
8923,509
8924,507
8925,508
8926,508
8927,507
8928,507
8929,505
8930,507
8931,507
8932,508
8933,510
8934,509
8935,507
8936,508
8937,508
8938,508
8939,510
8940,508
8941,508
8942,509
8943,511
8944,510
8945,507
8946,507
8947,507
8948,506
8949,508
8950,509
8951,508
8952,505
8953,509
8954,508
8955,509
8956,509
8957,506
8958,507
8959,505
8960,506
8961,509
8962,508
8963,510
8964,509
8965,506
8966,509
8967,509
8968,507
8969,507
8970,507
8971,504
8972,508
8973,509
8974,507
8975,509
8976,509
8977,508
8978,510
8979,507
8980,508
8981,507
8982,508
8983,510
8984,508
8985,508
8986,508
8987,507
8988,508
8989,509
8990,507
8991,506
8992,508
8993,510
8994,511
8995,507
8996,507
8997,508
8998,507
8999,509
9000,507
9001,508
9002,507
9003,507
9004,508
9005,506
9006,508
9007,509
9008,508
9009,507
9010,507
9011,507
9012,508
9013,509
9014,510
9015,509
9016,508
9017,506
9018,506
9019,508
9020,508
9021,509
9022,507
9023,509
9024,508
9025,511
9026,507
9027,507
9028,507
9029,506
9030,508
9031,508
9032,507
9033,508
9034,507
9035,506
9036,508
9037,508
9038,508
9039,507
9040,507
9041,507
9042,507
9043,508
9044,508
9045,508
9046,510
9047,508
9048,509
9049,507
9050,508
9051,508
9052,509
9053,508
9054,506
9055,506
9056,508
9057,509
9058,506
9059,508
9060,506
9061,506
9062,509
9063,510
9064,508
9065,508
9066,508
9067,510
9068,508
9069,507
9070,507
9071,509
9072,507
9073,505
9074,508
9075,508
9076,508
9077,506
9078,509
9079,509
9080,507
9081,507
9082,507
9083,511
9084,507
9085,508
9086,506
9087,510
9088,507
9089,507
9090,509
9091,508
9092,510
9093,508
9094,507
9095,509
9096,509
9097,510
9098,510
9099,509
9100,507
9101,508
9102,508
9103,509
9104,508
9105,509
9106,508
9107,507
9108,505
9109,507
9110,508
9111,508
9112,508
9113,507
9114,509
9115,507
9116,508
9117,508
9118,507
9119,510
9120,507
9121,509
9122,508
9123,506
9124,506
9125,507
9126,508
9127,508
9128,508
9129,509
9130,507
9131,509
9132,510
9133,507
9134,509
9135,508
9136,507
9137,508
9138,508
9139,510
9140,507
9141,507
9142,509
9143,509
9144,508
9145,509
9146,508
9147,506
9148,506
9149,508
9150,509
9151,507
9152,508
9153,509
9154,509
9155,508
9156,507
9157,508
9158,508
9159,507
9160,508
9161,508
9162,508
9163,508
9164,504
9165,505
9166,508
9167,509
9168,507
9169,509
9170,509
9171,507
9172,509
9173,508
9174,509
9175,507
9176,508
9177,508
9178,507
9179,508
9180,508
9181,506
9182,509
9183,509
9184,508
9185,504
9186,508
9187,505
9188,507
9189,508
9190,509
9191,508
9192,509
9193,507
9194,508
9195,508
9196,509
9197,511
9198,508
9199,507
9200,508
9201,509
9202,507
9203,508
9204,508
9205,509
9206,506
9207,506
9208,506
9209,510
9210,508
9211,507
9212,508
9213,511
9214,508
9215,507
9216,506
9217,508
9218,507
9219,509
9220,511
9221,509
9222,508
9223,508
9224,509
9225,509
9226,508
9227,507
9228,509
9229,507
9230,507
9231,506
9232,506
9233,509
9234,507
9235,507
9236,507
9237,508
9238,507
9239,507
9240,508
9241,508
9242,508
9243,508
9244,506
9245,507
9246,508
9247,507
9248,507
9249,508
9250,508
9251,504
9252,508
9253,512
9254,511
9255,508
9256,508
9257,510
9258,508
9259,511
9260,508
9261,505
9262,506
9263,504
9264,509
9265,507
9266,507
9267,510
9268,510
9269,510
9270,507
9271,508
9272,508
9273,505
9274,508
9275,507
9276,507
9277,506
9278,507
9279,505
9280,509
9281,509
9282,508
9283,511
9284,508
9285,506
9286,507
9287,508
9288,508
9289,508
9290,507
9291,507
9292,506
9293,509
9294,507
9295,509
9296,509
9297,506
9298,509
9299,509
9300,510
9301,510
9302,508
9303,508
9304,507
9305,507
9306,508
9307,507
9308,507
9309,508
9310,505
9311,507
9312,508
9313,510
9314,508
9315,507
9316,510
9317,508
9318,510
9319,511
9320,509
9321,507
9322,508
9323,508
9324,506
9325,505
9326,505
9327,508
9328,509
9329,509
9330,511
9331,510
9332,506
9333,509
9334,508
9335,510
9336,508
9337,508
9338,508
9339,507
9340,508
9341,509
9342,506
9343,509
9344,507
9345,508
9346,509
9347,509
9348,504
9349,507
9350,508
9351,511
9352,509
9353,510
9354,507
9355,506
9356,506
9357,509
9358,508
9359,507
9360,508
9361,507
9362,506
9363,507
9364,511
9365,508
9366,509
9367,508
9368,508
9369,506
9370,507
9371,508
9372,508
9373,507
9374,507
9375,507
9376,510
9377,507
9378,507
9379,509
9380,508
9381,509
9382,508
9383,509
9384,508
9385,508
9386,508
9387,507
9388,509
9389,509
9390,507
9391,506
9392,507
9393,511
9394,510
9395,509
9396,509
9397,509
9398,506
9399,508
9400,508
9401,506
9402,508
9403,508
9404,508
9405,508
9406,509
9407,510
9408,509
9409,510
9410,508
9411,507
9412,507
9413,508
9414,507
9415,509
9416,507
9417,506
9418,508
9419,510
9420,508
9421,507
9422,509
9423,509
9424,507
9425,508
9426,505
9427,508
9428,507
9429,509
9430,510
9431,511
9432,508
9433,507
9434,507
9435,509
9436,506
9437,510
9438,509
9439,507
9440,509
9441,507
9442,508
9443,509
9444,505
9445,508
9446,507
9447,509
9448,510
9449,507
9450,508
9451,507
9452,506
9453,505
9454,508
9455,509
9456,509
9457,508
9458,509
9459,508
9460,507
9461,509
9462,509
9463,507
9464,507
9465,509
9466,509
9467,508
9468,510
9469,508
9470,508
9471,507
9472,507
9473,507
9474,509
9475,508
9476,508
9477,506
9478,508
9479,506
9480,508
9481,508
9482,510
9483,509
9484,505
9485,508
9486,505
9487,505
9488,508
9489,508
9490,508
9491,508
9492,508
9493,505
9494,508
9495,509
9496,508
9497,511
9498,511
9499,507
9500,506
9501,506
9502,510
9503,510
9504,509
9505,508
9506,507
9507,507
9508,507
9509,508
9510,509
9511,508
9512,507
9513,509
9514,509
9515,510
9516,510
9517,508
9518,507
9519,506
9520,508
9521,512
9522,508
9523,506
9524,507
9525,508
9526,508
9527,507
9528,507
9529,508
9530,508
9531,508
9532,508
9533,508
9534,509
9535,508
9536,508
9537,508
9538,508
9539,509
9540,511
9541,507
9542,507
9543,505
9544,506
9545,509
9546,508
9547,508
9548,510
9549,507
9550,509
9551,508
9552,506
9553,507
9554,507
9555,508
9556,508
9557,507
9558,508
9559,507
9560,510
9561,507
9562,507
9563,509
9564,510
9565,507
9566,508
9567,508
9568,507
9569,507
9570,508
9571,508
9572,509
9573,510
9574,511
9575,509
9576,509
9577,506
9578,506
9579,508
9580,507
9581,507
9582,509
9583,506
9584,508
9585,507
9586,507
9587,509
9588,508
9589,506
9590,508
9591,508
9592,509
9593,510
9594,508
9595,505
9596,507
9597,510
9598,507
9599,511
9600,509
9601,510
9602,509
9603,508
9604,507
9605,508
9606,508
9607,509
9608,510
9609,507
9610,508
9611,505
9612,508
9613,508
9614,509
9615,508
9616,506
9617,508
9618,506
9619,505
9620,507
9621,508
9622,508
9623,509
9624,509
9625,510
9626,508
9627,506
9628,505
9629,506
9630,504
9631,510
9632,508
9633,507
9634,509
9635,505
9636,507
9637,507
9638,510
9639,512
9640,511
9641,509
9642,506
9643,508
9644,509
9645,507
9646,507
9647,505
9648,508
9649,511
9650,508
9651,509
9652,509
9653,506
9654,505
9655,507
9656,507
9657,505
9658,508
9659,509
9660,506
9661,508
9662,505
9663,508
9664,507
9665,507
9666,510
9667,510
9668,508
9669,507
9670,508
9671,507
9672,506
9673,509
9674,508
9675,508
9676,507
9677,509
9678,509
9679,507
9680,507
9681,505
9682,507
9683,510
9684,509
9685,508
9686,507
9687,507
9688,509
9689,508
9690,506
9691,508
9692,509
9693,508
9694,507
9695,508
9696,506
9697,508
9698,508
9699,508
9700,508
9701,509
9702,511
9703,510
9704,508
9705,510
9706,508
9707,506
9708,509
9709,508
9710,508
9711,507
9712,504
9713,505
9714,506
9715,509
9716,508
9717,507
9718,509
9719,508
9720,508
9721,508
9722,508
9723,508
9724,506
9725,507
9726,508
9727,507
9728,508
9729,508
9730,507
9731,508
9732,509
9733,509
9734,507
9735,507
9736,509
9737,507
9738,509
9739,508
9740,507
9741,507
9742,508
9743,510
9744,508
9745,508
9746,506
9747,506
9748,507
9749,507
9750,508
9751,508
9752,507
9753,508
9754,510
9755,510
9756,508
9757,510
9758,509
9759,508
9760,507
9761,506
9762,509
9763,507
9764,508
9765,507
9766,507
9767,507
9768,506
9769,507
9770,508
9771,509
9772,510
9773,508
9774,508
9775,507
9776,508
9777,506
9778,508
9779,510
9780,510
9781,510
9782,508
9783,508
9784,508
9785,508
9786,507
9787,506
9788,508
9789,508
9790,509
9791,508
9792,505
9793,508
9794,507
9795,510
9796,508
9797,509
9798,507
9799,506
9800,505
9801,508
9802,508
9803,508
9804,508
9805,508
9806,508
9807,507
9808,508
9809,507
9810,505
9811,508
9812,508
9813,507
9814,510
9815,509
9816,510
9817,510
9818,509
9819,506
9820,509
9821,511
9822,507
9823,509
9824,506
9825,509
9826,508
9827,507
9828,503
9829,507
9830,508
9831,508
9832,510
9833,505
9834,508
9835,505
9836,508
9837,506
9838,508
9839,508
9840,510
9841,508
9842,507
9843,507
9844,508
9845,507
9846,510
9847,506
9848,505
9849,506
9850,507
9851,510
9852,508
9853,507
9854,510
9855,511
9856,509
9857,507
9858,505
9859,507
9860,510
9861,506
9862,508
9863,509
9864,510
9865,508
9866,508
9867,506
9868,507
9869,508
9870,508
9871,508
9872,507
9873,509
9874,505
9875,507
9876,508
9877,509
9878,509
9879,508
9880,508
9881,508
9882,508
9883,509
9884,507
9885,507
9886,507
9887,510
9888,508
9889,508
9890,507
9891,509
9892,508
9893,510
9894,506
9895,507
9896,509
9897,508
9898,505
9899,507
9900,506
9901,507
9902,509
9903,508
9904,510
9905,506
9906,505
9907,507
9908,507
9909,508
9910,508
9911,508
9912,508
9913,507
9914,508
9915,506
9916,509
9917,508
9918,511
9919,506
9920,507
9921,508
9922,510
9923,512
9924,506
9925,506
9926,506
9927,507
9928,508
9929,508
9930,508
9931,510
9932,510
9933,505
9934,508
9935,507
9936,507
9937,508
9938,508
9939,506
9940,507
9941,508
9942,509
9943,509
9944,507
9945,506
9946,506
9947,510
9948,509
9949,510
9950,509
9951,509
9952,508
9953,506
9954,507
9955,508
9956,509
9957,506
9958,510
9959,508
9960,508
9961,508
9962,505
9963,508
9964,508
9965,507
9966,508
9967,507
9968,509
9969,507
9970,509
9971,508
9972,507
9973,509
9974,507
9975,507
9976,506
9977,507
9978,509
9979,506
9980,507
9981,507
9982,509
9983,511
9984,510
9985,508
9986,508
9987,509
9988,509
9989,508
9990,507
9991,505
9992,512
9993,510
9994,509
9995,508
9996,508
9997,508
9998,506
9999,508
10000,506
10001,506
10002,508
10003,508
10004,507
10005,507
10006,508
10007,509
10008,508
10009,506
10010,506
10011,508
10012,509
10013,509
10014,507
10015,507
10016,507
10017,507
10018,508
10019,509
10020,508
10021,508
10022,509
10023,508
10024,508
10025,508
10026,506
10027,505
10028,507
10029,509
10030,508
10031,506
10032,509
10033,508
10034,507
10035,507
10036,509
10037,508
10038,509
10039,508
10040,508
10041,509
10042,510
10043,509
10044,505
10045,507
10046,507
10047,508
10048,506
10049,506
10050,508
10051,508
10052,509
10053,510
10054,507
10055,508
10056,510
10057,508
10058,506
10059,504
10060,506
10061,508
10062,510
10063,510
10064,507
10065,508
10066,507
10067,507
10068,508
10069,508
10070,508
10071,509
10072,509
10073,508
10074,507
10075,507
10076,509
10077,508
10078,509
10079,507
10080,508
10081,508
10082,510
10083,508
10084,507
10085,505
10086,509
10087,508
10088,509
10089,509
10090,508
10091,509
10092,508
10093,507
10094,508
10095,506
10096,510
10097,507
10098,508
10099,506
10100,508
10101,509
10102,507
10103,508
10104,505
10105,506
10106,506
10107,509
10108,508
10109,509
10110,508
10111,507
10112,509
10113,510
10114,509
10115,508
10116,509
10117,508
10118,511
10119,509
10120,509
10121,509
10122,507
10123,506
10124,507
10125,508
10126,505
10127,508
10128,507
10129,505
10130,507
10131,508
10132,511
10133,506
10134,508
10135,508
10136,507
10137,507
10138,507
10139,509
10140,510
10141,509
10142,508
10143,508
10144,508
10145,509
10146,509
10147,510
10148,508
10149,508
10150,507
10151,508
10152,508
10153,510
10154,508
10155,507
10156,508
10157,506
10158,506
10159,506
10160,506
10161,507
10162,508
10163,508
10164,507
10165,507
10166,508
10167,510
10168,507
10169,511
10170,508
10171,508
10172,505
10173,509
10174,508
10175,508
10176,507
10177,507
10178,509
10179,510
10180,508
10181,508
10182,506
10183,505
10184,508
10185,507
10186,506
10187,507
10188,511
10189,508
10190,508
10191,509
10192,507
10193,507
10194,507
10195,508
10196,508
10197,507
10198,509
10199,508
10200,507
10201,508
10202,508
10203,510
10204,510
10205,508
10206,506
10207,507
10208,507
10209,506
10210,505
10211,507
10212,508
10213,508
10214,507
10215,509
10216,509
10217,507
10218,510
10219,507
10220,508
10221,508
10222,508
10223,508
10224,506
10225,508
10226,508
10227,507
10228,508
10229,504
10230,509
10231,507
10232,509
10233,507
10234,508
10235,506
10236,507
10237,506
10238,508
10239,511
10240,508
10241,510
10242,505
10243,508
10244,508
10245,507
10246,505
10247,506
10248,507
10249,508
10250,508
10251,507
10252,508
10253,509
10254,508
10255,508
10256,508
10257,508
10258,507
10259,508
10260,508
10261,508
10262,506
10263,508
10264,508
10265,507
10266,508
10267,509
10268,508
10269,508
10270,508
10271,509
10272,508
10273,508
10274,508
10275,508
10276,506
10277,509
10278,509
10279,507
10280,507
10281,508
10282,509
10283,510
10284,507
10285,508
10286,509
10287,510
10288,505
10289,506
10290,506
10291,509
10292,508
10293,509
10294,506
10295,507
10296,507
10297,508
10298,508
10299,510
10300,508
10301,507
10302,509
10303,508
10304,506
10305,507
10306,508
10307,508
10308,507
10309,506
10310,508
10311,510
10312,510
10313,508
10314,509
10315,509
10316,507
10317,508
10318,509
10319,509
10320,510
10321,506
10322,505
10323,505
10324,509
10325,507
10326,506
10327,508
10328,510
10329,508
10330,508
10331,508
10332,508
10333,509
10334,509
10335,508
10336,509
10337,507
10338,507
10339,508
10340,506
10341,508
10342,506
10343,509
10344,506
10345,507
10346,506
10347,509
10348,506
10349,507
10350,508
10351,507
10352,506
10353,507
10354,508
10355,509
10356,508
10357,508
10358,510
10359,509
10360,507
10361,507
10362,509
10363,507
10364,506
10365,510
10366,507
10367,509
10368,509
10369,508
10370,507
10371,508
10372,508
10373,506
10374,508
10375,508
10376,509
10377,507
10378,509
10379,507
10380,507
10381,507
10382,510
10383,507
10384,509
10385,507
10386,507
10387,509
10388,508
10389,507
10390,508
10391,509
10392,510
10393,507
10394,510
10395,506
10396,507
10397,508
10398,508
10399,506
10400,506
10401,507
10402,508
10403,509
10404,509
10405,509
10406,508
10407,508
10408,507
10409,509
10410,507
10411,507
10412,508
10413,507
10414,507
10415,508
10416,508
10417,508
10418,509
10419,508
10420,507
10421,508
10422,507
10423,508
10424,507
10425,509
10426,508
10427,506
10428,508
10429,509
10430,510
10431,508
10432,508
10433,508
10434,507
10435,508
10436,508
10437,508
10438,509
10439,506
10440,508
10441,508
10442,507
10443,508
10444,508
10445,506
10446,509
10447,511
10448,509
10449,509
10450,509
10451,506
10452,507
10453,508
10454,508
10455,507
10456,507
10457,509
10458,508
10459,508
10460,507
10461,508
10462,510
10463,507
10464,508
10465,509
10466,508
10467,508
10468,509
10469,506
10470,506
10471,508
10472,510
10473,510
10474,506
10475,508
10476,508
10477,505
10478,508
10479,505
10480,507
10481,509
10482,509
10483,509
10484,509
10485,508
10486,507
10487,508
10488,508
10489,508
10490,507
10491,508
10492,508
10493,508
10494,507
10495,507
10496,507
10497,508
10498,506
10499,507
10500,506
10501,507
10502,508
10503,510
10504,510
10505,507
10506,509
10507,509
10508,508
10509,510
10510,508
10511,505
10512,507
10513,508
10514,509
10515,510
10516,510
10517,509
10518,508
10519,508
10520,507
10521,508
10522,507
10523,507
10524,505
10525,507
10526,507
10527,507
10528,511
10529,510
10530,507
10531,508
10532,508
10533,506
10534,508
10535,508
10536,512
10537,508
10538,507
10539,509
10540,507
10541,508
10542,510
10543,508
10544,508
10545,508
10546,504
10547,508
10548,507
10549,508
10550,505
10551,508
10552,508
10553,505
10554,506
10555,510
10556,508
10557,509
10558,510
10559,510
10560,508
10561,507
10562,508
10563,507
10564,506
10565,508
10566,507
10567,507
10568,511
10569,506
10570,506
10571,508
10572,508
10573,507
10574,508
10575,509
10576,508
10577,507
10578,509
10579,509
10580,508
10581,509
10582,508
10583,509
10584,506
10585,505
10586,507
10587,508
10588,507
10589,507
10590,510
10591,505
10592,505
10593,509
10594,508
10595,508
10596,508
10597,508
10598,508
10599,506
10600,504
10601,508
10602,508
10603,508
10604,509
10605,506
10606,508
10607,510
10608,508
10609,507
10610,509
10611,507
10612,507
10613,508
10614,508
10615,508
10616,510
10617,509
10618,507
10619,507
10620,506
10621,507
10622,510
10623,510
10624,507
10625,506
10626,510
10627,508
10628,505
10629,509
10630,512
10631,509
10632,507
10633,509
10634,507
10635,505
10636,506
10637,508
10638,509
10639,506
10640,505
10641,506
10642,507
10643,509
10644,510
10645,508
10646,509
10647,507
10648,507
10649,509
10650,510
10651,511
10652,509
10653,508
10654,507
10655,509
10656,509
10657,508
10658,508
10659,509
10660,510
10661,508
10662,509
10663,507
10664,507
10665,509
10666,506
10667,507
10668,508
10669,508
10670,508
10671,509
10672,508
10673,509
10674,508
10675,507
10676,508
10677,506
10678,507
10679,510
10680,507
10681,504
10682,505
10683,512
10684,510
10685,510
10686,508
10687,507
10688,507
10689,509
10690,508
10691,508
10692,509
10693,508
10694,507
10695,507
10696,508
10697,509
10698,508
10699,509
10700,507
10701,506
10702,505
10703,508
10704,507
10705,507
10706,508
10707,508
10708,509
10709,508
10710,506
10711,509
10712,508
10713,510
10714,510
10715,508
10716,508
10717,506
10718,505
10719,509
10720,510
10721,508
10722,509
10723,506
10724,506
10725,508
10726,507
10727,508
10728,509
10729,506
10730,507
10731,508
10732,508
10733,507
10734,508
10735,508
10736,506
10737,508
10738,509
10739,507
10740,508
10741,509
10742,507
10743,509
10744,507
10745,508
10746,507
10747,507
10748,508
10749,508
10750,508
10751,507
10752,508
10753,508
10754,507
10755,507
10756,508
10757,509
10758,508
10759,510
10760,511
10761,508
10762,508
10763,508
10764,508
10765,507
10766,508
10767,508
10768,507
10769,506
10770,507
10771,506
10772,508
10773,510
10774,509
10775,510
10776,508
10777,508
10778,506
10779,508
10780,508
10781,508
10782,508
10783,507
10784,506
10785,506
10786,509
10787,508
10788,507
10789,508
10790,506
10791,507
10792,508
10793,509
10794,508
10795,507
10796,508
10797,510
10798,509
10799,507
10800,507
10801,506
10802,508
10803,510
10804,509
10805,509
10806,508
10807,508
10808,509
10809,507
10810,507
10811,509
10812,507
10813,507
10814,506
10815,505
10816,508
10817,511
10818,511
10819,507
10820,506
10821,505
10822,508
10823,509
10824,508
10825,510
10826,509
10827,508
10828,508
10829,510
10830,508
10831,510
10832,508
10833,507
10834,507
10835,506
10836,505
10837,507
10838,506
10839,508
10840,508
10841,511
10842,504
10843,507
10844,510
10845,507
10846,508
10847,510
10848,508
10849,506
10850,506
10851,508
10852,509
10853,510
10854,508
10855,509
10856,508
10857,508
10858,507
10859,506
10860,507
10861,509
10862,510
10863,509
10864,509
10865,509
10866,508
10867,506
10868,508
10869,508
10870,508
10871,509
10872,508
10873,507
10874,508
10875,508
10876,508
10877,508
10878,508
10879,507
10880,508
10881,509
10882,508
10883,509
10884,508
10885,509
10886,508
10887,508
10888,507
10889,508
10890,509
10891,508
10892,506
10893,509
10894,505
10895,509
10896,508
10897,506
10898,504
10899,505
10900,509
10901,511
10902,510
10903,507
10904,508
10905,506
10906,507
10907,507
10908,506
10909,510
10910,510
10911,507
10912,508
10913,509
10914,507
10915,505
10916,507
10917,506
10918,507
10919,507
10920,510
10921,509
10922,511
10923,511
10924,507
10925,507
10926,508
10927,509
10928,509
10929,508
10930,507
10931,508
10932,507
10933,506
10934,508
10935,510
10936,512
10937,507
10938,509
10939,508
10940,508
10941,507
10942,509
10943,507
10944,508
10945,508
10946,508
10947,509
10948,507
10949,505
10950,505
10951,508
10952,509
10953,508
10954,505
10955,509
10956,508
10957,509
10958,508
10959,507
10960,509
10961,507
10962,508
10963,508
10964,508
10965,508
10966,508
10967,509
10968,507
10969,505
10970,507
10971,508
10972,508
10973,506
10974,506
10975,508
10976,509
10977,508
10978,508
10979,506
10980,506
10981,510
10982,509
10983,508
10984,506
10985,506
10986,508
10987,507
10988,508
10989,507
10990,508
10991,508
10992,510
10993,510
10994,507
10995,507
10996,507
10997,507
10998,509
10999,508
11000,509
11001,509
11002,507
11003,507
11004,508
11005,508
11006,509
11007,510
11008,508
11009,507
11010,505
11011,508
11012,506
11013,505
11014,507
11015,509
11016,509
11017,510
11018,508
11019,508
11020,509
11021,507
11022,507
11023,510
11024,507
11025,505
11026,508
11027,508
11028,510
11029,510
11030,511
11031,508
11032,509
11033,507
11034,507
11035,508
11036,506
11037,508
11038,507
11039,507
11040,508
11041,508
11042,507
11043,508
11044,507
11045,505
11046,508
11047,511
11048,509
11049,508
11050,510
11051,509
11052,508
11053,509
11054,507
11055,508
11056,509
11057,509
11058,510
11059,508
11060,506
11061,508
11062,507
11063,508
11064,506
11065,510
11066,508
11067,505
11068,509
11069,509
11070,507
11071,506
11072,509
11073,509
11074,509
11075,508
11076,508
11077,507
11078,510
11079,505
11080,506
11081,507
11082,511
11083,509
11084,507
11085,507
11086,509
11087,509
11088,509
11089,507
11090,509
11091,507
11092,510
11093,508
11094,506
11095,508
11096,508
11097,508
11098,508
11099,510
11100,507
11101,508
11102,508
11103,507
11104,507
11105,508
11106,506
11107,507
11108,508
11109,510
11110,508
11111,507
11112,505
11113,509
11114,507
11115,508
11116,507
11117,507
11118,508
11119,509
11120,508
11121,509
11122,507
11123,511
11124,509
11125,508
11126,506
11127,508
11128,508
11129,509
11130,507
11131,508
11132,506
11133,510
11134,509
11135,506
11136,509
11137,509
11138,507
11139,508
11140,507
11141,507
11142,509
11143,508
11144,509
11145,508
11146,505
11147,510
11148,510
11149,506
11150,507
11151,509
11152,510
11153,509
11154,505
11155,508
11156,508
11157,507
11158,508
11159,506
11160,507
11161,507
11162,506
11163,508
11164,506
11165,507
11166,506
11167,510
11168,509
11169,510
11170,506
11171,507
11172,509
11173,509
11174,510
11175,511
11176,506
11177,505
11178,506
11179,508
11180,506
11181,508
11182,508
11183,507
11184,508
11185,508
11186,508
11187,507
11188,510
11189,508
11190,508
11191,510
11192,506
11193,508
11194,509
11195,509
11196,508
11197,508
11198,508
11199,508
11200,510
11201,509
11202,508
11203,505
11204,506
11205,509
11206,507
11207,507
11208,510
11209,509
11210,509
11211,506
11212,507
11213,508
11214,507
11215,509
11216,508
11217,509
11218,507
11219,508
11220,507
11221,509
11222,507
11223,508
11224,508
11225,510
11226,508
11227,508
11228,508
11229,509
11230,505
11231,508
11232,508
11233,506
11234,506
11235,508
11236,508
11237,508
11238,509
11239,507
11240,508
11241,506
11242,508
11243,508
11244,507
11245,507
11246,507
11247,508
11248,511
11249,508
11250,507
11251,507
11252,508
11253,507
11254,508
11255,508
11256,507
11257,509
11258,511
11259,507
11260,507
11261,508
11262,508
11263,508
11264,508
11265,505
11266,506
11267,509
11268,511
11269,506
11270,505
11271,510
11272,508
11273,506
11274,509
11275,510
11276,508
11277,508
11278,508
11279,507
11280,506
11281,507
11282,508
11283,509
11284,508
11285,509
11286,509
11287,509
11288,506
11289,509
11290,507
11291,509
11292,505
11293,510
11294,508
11295,508
11296,507
11297,507
11298,507
11299,508
11300,509
11301,508
11302,508
11303,508
11304,509
11305,507
11306,507
11307,508
11308,508
11309,512
11310,507
11311,506
11312,510
11313,508
11314,509
11315,509
11316,507
11317,507
11318,506
11319,507
11320,508
11321,508
11322,508
11323,507
11324,509
11325,507
11326,508
11327,508
11328,508
11329,504
11330,506
11331,505
11332,505
11333,508
11334,511
11335,508
11336,507
11337,508
11338,510
11339,511
11340,507
11341,510
11342,509
11343,505
11344,508
11345,507
11346,506
11347,509
11348,507
11349,509
11350,508
11351,507
11352,506
11353,507
11354,505
11355,506
11356,506
11357,504
11358,509
11359,508
11360,507
11361,508
11362,510
11363,509
11364,511
11365,509
11366,508
11367,505
11368,509
11369,507
11370,508
11371,509
11372,510
11373,508
11374,507
11375,507
11376,508
11377,507
11378,510
11379,509
11380,509
11381,508
11382,510
11383,508
11384,508
11385,507
11386,508
11387,508
11388,508
11389,508
11390,509
11391,507
11392,509
11393,509
11394,507
11395,507
11396,506
11397,507
11398,506
11399,509
11400,507
11401,508
11402,509
11403,510
11404,507
11405,509
11406,508
11407,506
11408,506
11409,507
11410,507
11411,508
11412,509
11413,509
11414,508
11415,509
11416,508
11417,509
11418,509
11419,507
11420,509
11421,507
11422,507
11423,509
11424,508
11425,506
11426,508
11427,507
11428,506
11429,507
11430,508
11431,511
11432,511
11433,509
11434,505
11435,509
11436,508
11437,511
11438,508
11439,508
11440,504
11441,507
11442,507
11443,512
11444,508
11445,508
11446,508
11447,508
11448,510
11449,507
11450,510
11451,505
11452,507
11453,506
11454,505
11455,507
11456,509
11457,507
11458,507
11459,508
11460,505
11461,507
11462,507
11463,506
11464,509
11465,508
11466,508
11467,507
11468,507
11469,506
11470,508
11471,509
11472,509
11473,508
11474,509
11475,509
11476,507
11477,506
11478,508
11479,506
11480,507
11481,507
11482,508
11483,508
11484,508
11485,509
11486,510
11487,508
11488,506
11489,506
11490,508
11491,507
11492,510
11493,510
11494,508
11495,507
11496,508
11497,508
11498,507
11499,504
11500,505
11501,507
11502,511
11503,513
11504,510
11505,510
11506,509
11507,505
11508,506
11509,507
11510,508
11511,506
11512,508
11513,507
11514,507
11515,506
11516,509
11517,510
11518,506
11519,508
11520,508
11521,510
11522,508
11523,509
11524,507
11525,509
11526,507
11527,507
11528,510
11529,508
11530,507
11531,508
11532,508
11533,506
11534,507
11535,509
11536,507
11537,509
11538,508
11539,509
11540,507
11541,506
11542,510
11543,509
11544,507
11545,508
11546,509
11547,506
11548,509
11549,507
11550,508
11551,508
11552,508
11553,509
11554,508
11555,510
11556,505
11557,506
11558,507
11559,505
11560,508
11561,507
11562,508
11563,508
11564,507
11565,506
11566,509
11567,507
11568,511
11569,509
11570,508
11571,506
11572,506
11573,510
11574,509
11575,510
11576,508
11577,508
11578,508
11579,509
11580,507
11581,509
11582,507
11583,508
11584,507
11585,507
11586,509
11587,510
11588,506
11589,507
11590,507
11591,508
11592,510
11593,508
11594,508
11595,511
11596,508
11597,508
11598,508
11599,508
11600,508
11601,508
11602,506
11603,507
11604,508
11605,507
11606,507
11607,505
11608,508
11609,508
11610,507
11611,508
11612,507
11613,507
11614,507
11615,509
11616,508
11617,508
11618,508
11619,507
11620,507
11621,508
11622,508
11623,510
11624,510
11625,509
11626,507
11627,504
11628,505
11629,507
11630,511
11631,508
11632,509
11633,507
11634,507
11635,510
11636,507
11637,505
11638,508
11639,510
11640,507
11641,506
11642,506
11643,507
11644,507
11645,509
11646,510
11647,511
11648,508
11649,509
11650,509
11651,508
11652,507
11653,507
11654,508
11655,508
11656,507
11657,506
11658,508
11659,510
11660,508
11661,509
11662,510
11663,509
11664,507
11665,508
11666,508
11667,507
11668,510
11669,507
11670,508
11671,505
11672,509
11673,507
11674,507
11675,506
11676,510
11677,511
11678,510
11679,506
11680,507
11681,506
11682,511
11683,510
11684,508
11685,507
11686,507
11687,507
11688,509
11689,508
11690,505
11691,506
11692,509
11693,508
11694,510
11695,507
11696,508
11697,510
11698,510
11699,509
11700,508
11701,509
11702,507
11703,508
11704,507
11705,507
11706,508
11707,507
11708,508
11709,509
11710,508
11711,509
11712,507
11713,505
11714,506
11715,505
11716,508
11717,509
11718,510
11719,508
11720,507
11721,507
11722,507
11723,508
11724,510
11725,510
11726,508
11727,506
11728,507
11729,508
11730,508
11731,508
11732,509
11733,508
11734,509
11735,506
11736,509
11737,508
11738,508
11739,508
11740,505
11741,508
11742,508
11743,507
11744,507
11745,509
11746,508
11747,507
11748,509
11749,511
11750,505
11751,509
11752,508
11753,506
11754,507
11755,507
11756,508
11757,506
11758,507
11759,505
11760,507
11761,506
11762,508
11763,507
11764,508
11765,510
11766,507
11767,507
11768,512
11769,512
11770,509
11771,510
11772,507
11773,509
11774,508
11775,508
11776,508
11777,508
11778,508
11779,507
11780,508
11781,506
11782,507
11783,508
11784,508
11785,507
11786,505
11787,508
11788,509
11789,508
11790,509
11791,508
11792,506
11793,507
11794,506
11795,508
11796,509
11797,507
11798,509
11799,510
11800,508
11801,509
11802,509
11803,508
11804,508
11805,509
11806,508
11807,507
11808,507
11809,508
11810,508
11811,509
11812,510
11813,507
11814,505
11815,508
11816,508
11817,510
11818,508
11819,508
11820,509
11821,508
11822,508
11823,506
11824,507
11825,506
11826,504
11827,508
11828,508
11829,508
11830,505
11831,507
11832,509
11833,505
11834,509
11835,508
11836,509
11837,507
11838,508
11839,507
11840,508
11841,508
11842,508
11843,507
11844,507
11845,506
11846,507
11847,508
11848,507
11849,507
11850,509
11851,510
11852,510
11853,508
11854,510
11855,508
11856,505
11857,506
11858,510
11859,509
11860,508
11861,510
11862,506
11863,506
11864,508
11865,509
11866,509
11867,508
11868,508
11869,509
11870,505
11871,510
11872,507
11873,510
11874,508
11875,508
11876,506
11877,507
11878,507
11879,509
11880,510
11881,508
11882,508
11883,506
11884,508
11885,508
11886,508
11887,507
11888,506
11889,508
11890,511
11891,510
11892,508
11893,508
11894,506
11895,509
11896,508
11897,507
11898,508
11899,509
11900,510
11901,509
11902,508
11903,508
11904,506
11905,508
11906,508
11907,508
11908,507
11909,508
11910,507
11911,509
11912,509
11913,509
11914,509
11915,505
11916,508
11917,506
11918,509
11919,506
11920,505
11921,507
11922,510
11923,508
11924,507
11925,509
11926,507
11927,507
11928,507
11929,508
11930,510
11931,507
11932,509
11933,508
11934,508
11935,511
11936,508
11937,507
11938,507
11939,510
11940,508
11941,505
11942,505
11943,508
11944,510
11945,510
11946,507
11947,507
11948,508
11949,510
11950,509
11951,508
11952,507
11953,509
11954,505
11955,508
11956,508
11957,509
11958,509
11959,507
11960,507
11961,506
11962,507
11963,510
11964,507
11965,508
11966,507
11967,508
11968,506
11969,508
11970,508
11971,511
11972,508
11973,509
11974,509
11975,506
11976,508
11977,507
11978,507
11979,507
11980,509
11981,507
11982,508
11983,507
11984,509
11985,508
11986,508
11987,509
11988,507
11989,507
11990,508
11991,506
11992,507
11993,509
11994,507
11995,510
11996,508
11997,509
11998,508
11999,505
12000,508
12001,509
12002,508
12003,508
12004,512
12005,511
12006,508
12007,508
12008,509
12009,507
12010,506
12011,507
12012,508
12013,507
12014,509
12015,507
12016,507
12017,507
12018,508
12019,508
12020,508
12021,507
12022,510
12023,511
12024,508
12025,505
12026,508
12027,508
12028,508
12029,510
12030,508
12031,510
12032,508
12033,507
12034,508
12035,510
12036,507
12037,507
12038,506
12039,507
12040,508
12041,510
12042,509
12043,509
12044,508
12045,508
12046,506
12047,508
12048,509
12049,506
12050,505
12051,508
12052,507
12053,511
12054,509
12055,508
12056,506
12057,506
12058,509
12059,511
12060,507
12061,508
12062,509
12063,509
12064,508
12065,510
12066,506
12067,507
12068,508
12069,507
12070,507
12071,504
12072,509
12073,509
12074,508
12075,509
12076,509
12077,507
12078,508
12079,507
12080,510
12081,505
12082,509
12083,509
12084,509
12085,510
12086,509
12087,508
12088,506
12089,507
12090,507
12091,505
12092,507
12093,509
12094,512
12095,509
12096,507
12097,508
12098,508
12099,506
12100,504
12101,505
12102,507
12103,508
12104,509
12105,510
12106,509
12107,512
12108,510
12109,511
12110,508
12111,505
12112,506
12113,505
12114,507
12115,507
12116,511
12117,509
12118,508
12119,506
12120,507
12121,511
12122,509
12123,507
12124,508
12125,505
12126,506
12127,505
12128,504
12129,508
12130,516
12131,512
12132,510
12133,507
12134,505
12135,507
12136,506
12137,505
12138,507
12139,507
12140,509
12141,505
12142,507
12143,508
12144,508
12145,512
12146,508
12147,508
12148,512
12149,510
12150,509
12151,509
12152,506
12153,504
12154,507
12155,509
12156,507
12157,504
12158,508
12159,510
12160,511
12161,514
12162,513
12163,510
12164,505
12165,508
12166,509
12167,511
12168,491
12169,499
12170,498
12171,497
12172,520
12173,536
12174,515
12175,507
12176,505
12177,506
12178,505
12179,505
12180,505
12181,503
12182,511
12183,513
12184,514
12185,512
12186,508
12187,509
12188,507
12189,506
12190,507
12191,508
12192,507
12193,508
12194,508
12195,507
12196,507
12197,507
12198,507
12199,506
12200,507
12201,505
12202,507
12203,507
12204,509
12205,508
12206,508
12207,509
12208,508
12209,508
12210,507
12211,508
12212,509
12213,507
12214,508
12215,509
12216,507
12217,507
12218,506
12219,507
12220,507
12221,510
12222,507
12223,509
12224,508
12225,507
12226,508
12227,508
12228,507
12229,504
12230,507
12231,507
12232,506
12233,502
12234,510
12235,518
12236,516
12237,510
12238,508
12239,508
12240,510
12241,508
12242,507
12243,503
12244,507
12245,509
12246,510
12247,506
12248,505
12249,506
12250,507
12251,511
12252,507
12253,507
12254,506
12255,507
12256,508
12257,508
12258,508
12259,506
12260,507
12261,508
12262,506
12263,508
12264,509
12265,508
12266,508
12267,508
12268,508
12269,506
12270,505
12271,505
12272,505
12273,507
12274,504
12275,511
12276,514
12277,512
12278,510
12279,507
12280,508
12281,506
12282,508
12283,505
12284,508
12285,508
12286,509
12287,509
12288,509
12289,509
12290,508
12291,506
12292,506
12293,507
12294,508
12295,507
12296,507
12297,507
12298,508
12299,508
12300,508
12301,508
12302,509
12303,508
12304,506
12305,506
12306,510
12307,509
12308,508
12309,509
12310,506
12311,509
12312,508
12313,510
12314,508
12315,509
12316,507
12317,508
12318,508
12319,508
12320,506
12321,506
12322,508
12323,508
12324,509
12325,506
12326,507
12327,508
12328,506
12329,510
12330,505
12331,509
12332,512
12333,509
12334,507
12335,503
12336,509
12337,513
12338,510
12339,509
12340,511
12341,509
12342,507
12343,506
12344,505
12345,509
12346,506
12347,504
12348,508
12349,506
12350,508
12351,506
12352,509
12353,508
12354,507
12355,506
12356,506
12357,507
12358,510
12359,510
12360,505
12361,506
12362,509
12363,512
12364,507
12365,507
12366,507
12367,507
12368,511
12369,508
12370,505
12371,507
12372,507
12373,507
12374,506
12375,507
12376,504
12377,512
12378,518
12379,513
12380,509
12381,507
12382,505
12383,505
12384,505
12385,504
12386,504
12387,507
12388,511
12389,511
12390,510
12391,509
12392,507
12393,508
12394,506
12395,506
12396,509
12397,510
12398,507
12399,506
12400,508
12401,509
12402,507
12403,507
12404,510
12405,507
12406,507
12407,505
12408,508
12409,510
12410,510
12411,512
12412,509
12413,507
12414,507
12415,508
12416,510
12417,506
12418,505
12419,506
12420,508
12421,507
12422,508
12423,507
12424,509
12425,507
12426,505
12427,506
12428,507
12429,507
12430,508
12431,505
12432,508
12433,508
12434,508
12435,505
12436,494
12437,497
12438,523
12439,535
12440,515
12441,509
12442,507
12443,506
12444,504
12445,506
12446,507
12447,507
12448,508
12449,509
12450,509
12451,503
12452,505
12453,511
12454,511
12455,509
12456,507
12457,507
12458,506
12459,508
12460,508
12461,508
12462,504
12463,497
12464,494
12465,501
12466,533
12467,520
12468,507
12469,505
12470,508
12471,510
12472,512
12473,510
12474,505
12475,504
12476,506
12477,506
12478,503
12479,507
12480,515
12481,510
12482,508
12483,508
12484,505
12485,508
12486,508
12487,508
12488,506
12489,503
12490,488
12491,501
12492,522
12493,515
12494,507
12495,511
12496,508
12497,511
12498,511
12499,508
12500,508
12501,508
12502,509
12503,509
12504,495
12505,516
12506,513
12507,506
12508,507
12509,507
12510,506
12511,504
12512,504
12513,505
12514,511
12515,510
12516,510
12517,509
12518,510
12519,507
12520,509
12521,511
12522,506
12523,507
12524,508
12525,507
12526,507
12527,507
12528,509
12529,510
12530,507
12531,507
12532,509
12533,510
12534,509
12535,508
12536,506
12537,497
12538,483
12539,505
12540,535
12541,522
12542,515
12543,508
12544,508
12545,510
12546,510
12547,507
12548,499
12549,507
12550,513
12551,510
12552,505
12553,505
12554,505
12555,502
12556,510
12557,513
12558,512
12559,509
12560,509
12561,508
12562,508
12563,508
12564,507
12565,509
12566,505
12567,504
12568,506
12569,510
12570,508
12571,509
12572,509
12573,508
12574,507
12575,509
12576,505
12577,508
12578,506
12579,507
12580,509
12581,508
12582,507
12583,510
12584,507
12585,507
12586,508
12587,508
12588,506
12589,505
12590,505
12591,507
12592,515
12593,515
12594,511
12595,508
12596,507
12597,506
12598,508
12599,507
12600,504
12601,504
12602,508
12603,510
12604,509
12605,506
12606,507
12607,508
12608,507
12609,507
12610,510
12611,509
12612,508
12613,508
12614,509
12615,507
12616,494
12617,493
12618,529
12619,525
12620,512
12621,507
12622,508
12623,508
12624,507
12625,504
12626,507
12627,509
12628,506
12629,506
12630,505
12631,512
12632,511
12633,509
12634,509
12635,505
12636,505
12637,508
12638,507
12639,507
12640,509
12641,507
12642,508
12643,507
12644,504
12645,504
12646,515
12647,516
12648,513
12649,508
12650,504
12651,488
12652,497
12653,521
12654,518
12655,513
12656,508
12657,508
12658,508
12659,508
12660,510
12661,510
12662,508
12663,509
12664,505
12665,499
12666,487
12667,505
12668,520
12669,525
12670,513
12671,507
12672,506
12673,505
12674,505
12675,506
12676,506
12677,508
12678,511
12679,508
12680,508
12681,504
12682,510
12683,508
12684,507
12685,509
12686,505
12687,505
12688,505
12689,505
12690,509
12691,511
12692,510
12693,511
12694,510
12695,508
12696,506
12697,506
12698,507
12699,507
12700,506
12701,508
12702,505
12703,504
12704,504
12705,506
12706,503
12707,508
12708,517
12709,513
12710,512
12711,510
12712,507
12713,507
12714,508
12715,509
12716,507
12717,505
12718,509
12719,510
12720,507
12721,504
12722,508
12723,509
12724,509
12725,508
12726,506
12727,507
12728,508
12729,505
12730,508
12731,508
12732,505
12733,508
12734,508
12735,513
12736,510
12737,508
12738,506
12739,506
12740,505
12741,508
12742,512
12743,509
12744,505
12745,499
12746,501
12747,515
12748,518
12749,515
12750,511
12751,506
12752,504
12753,505
12754,505
12755,507
12756,508
12757,506
12758,505
12759,504
12760,512
12761,511
12762,509
12763,506
12764,505
12765,496
12766,491
12767,519
12768,531
12769,515
12770,507
12771,506
12772,507
12773,505
12774,504
12775,508
12776,503
12777,490
12778,513
12779,522
12780,511
12781,507
12782,508
12783,509
12784,506
12785,508
12786,507
12787,509
12788,510
12789,511
12790,506
12791,504
12792,507
12793,494
12794,486
12795,520
12796,535
12797,515
12798,507
12799,506
12800,506
12801,507
12802,509
12803,507
12804,505
12805,507
12806,507
12807,509
12808,507
12809,508
12810,509
12811,507
12812,504
12813,504
12814,514
12815,516
12816,509
12817,508
12818,509
12819,508
12820,506
12821,504
12822,507
12823,505
12824,509
12825,508
12826,508
12827,505
12828,505
12829,507
12830,512
12831,511
12832,508
12833,506
12834,508
12835,503
12836,514
12837,516
12838,512
12839,509
12840,506
12841,508
12842,504
12843,493
12844,515
12845,513
12846,510
12847,504
12848,507
12849,508
12850,504
12851,503
12852,506
12853,512
12854,510
12855,509
12856,507
12857,508
12858,507
12859,508
12860,508
12861,508
12862,507
12863,508
12864,508
12865,508
12866,507
12867,509
12868,507
12869,507
12870,508
12871,509
12872,508
12873,508
12874,505
12875,505
12876,506
12877,508
12878,511
12879,510
12880,509
12881,507
12882,511
12883,508
12884,506
12885,507
12886,508
12887,508
12888,508
12889,508
12890,508
12891,509
12892,506
12893,507
12894,507
12895,507
12896,507
12897,510
12898,510
12899,507
12900,508
12901,508
12902,507
12903,507
12904,501
12905,486
12906,513
12907,526
12908,513
12909,504
12910,506
12911,506
12912,508
12913,503
12914,507
12915,512
12916,512
12917,506
12918,500
12919,506
12920,508
12921,492
12922,508
12923,529
12924,495
12925,502
12926,534
12927,516
12928,507
12929,505
12930,502
12931,504
12932,515
12933,514
12934,509
12935,506
12936,505
12937,505
12938,506
12939,508
12940,507
12941,506
12942,508
12943,507
12944,507
12945,506
12946,506
12947,509
12948,507
12949,507
12950,507
12951,507
12952,505
12953,510
12954,513
12955,508
12956,507
12957,510
12958,508
12959,507
12960,507
12961,509
12962,509
12963,508
12964,507
12965,508
12966,506
12967,507
12968,508
12969,508
12970,507
12971,507
12972,507
12973,506
12974,507
12975,508
12976,509
12977,507
12978,508
12979,508
12980,508
12981,508
12982,507
12983,510
12984,511
12985,507
12986,510
12987,511
12988,508
12989,509
12990,508
12991,507
12992,508
12993,507
12994,508
12995,508
12996,507
12997,508
12998,509
12999,508
13000,505
13001,508
13002,509
13003,507
13004,505
13005,508
13006,505
13007,502
13008,509
13009,510
13010,506
13011,511
13012,515
13013,502
13014,501
13015,507
13016,512
13017,516
13018,515
13019,508
13020,508
13021,506
13022,507
13023,506
13024,503
13025,503
13026,509
13027,515
13028,509
13029,493
13030,515
13031,510
13032,508
13033,512
13034,511
13035,509
13036,510
13037,508
13038,507
13039,504
13040,504
13041,507
13042,505
13043,508
13044,505
13045,507
13046,508
13047,509
13048,505
13049,508
13050,501
13051,485
13052,519
13053,536
13054,512
13055,510
13056,509
13057,509
13058,507
13059,504
13060,489
13061,500
13062,527
13063,517
13064,508
13065,508
13066,507
13067,505
13068,502
13069,508
13070,509
13071,512
13072,512
13073,507
13074,493
13075,488
13076,529
13077,519
13078,511
13079,508
13080,511
13081,510
13082,506
13083,504
13084,504
13085,505
13086,504
13087,507
13088,513
13089,511
13090,508
13091,506
13092,506
13093,508
13094,506
13095,508
13096,508
13097,507
13098,506
13099,508
13100,508
13101,507
13102,507
13103,510
13104,508
13105,509
13106,507
13107,508
13108,510
