,A2
0.0,724
0.001,748
0.002,774
0.003,799
0.004,811
0.005,811
0.006,788
0.007,761
0.008,735
0.009,727
0.01,722
0.011,702
0.012,651
0.013,608
0.014,568
0.015,519
0.016,476
0.017,438
0.018,403
0.019,376
0.02,345
0.021,311
0.022,284
0.023,271
0.024,268
0.025,283
0.026,312
0.027,336
0.028,358
0.029,365
0.03,319
0.031,263
0.032,258
0.033,271
0.034,278
0.035,287
0.036,287
0.037,295
0.038,305
0.039,319
0.04,354
0.041,398
0.042,430
0.043,460
0.044,473
0.045,450
0.046,435
0.047,449
0.048,465
0.049,467
0.05,446
0.051,431
0.052,437
0.053,451
0.054,454
0.055,462
0.056,469
0.057,473
0.058,483
0.059,502
0.06,512
0.061,510
0.062,502
0.063,495
0.064,488
0.065,487
0.066,491
0.067,498
0.068,508
0.069,502
0.07,486
0.071,480
0.072,480
0.073,476
0.074,478
0.075,480
0.076,489
0.077,504
0.078,522
0.079,543
0.08,551
0.081,549
0.082,545
0.083,531
0.084,516
0.085,512
0.086,513
0.087,513
0.088,509
0.089,505
0.09,509
0.091,518
0.092,526
0.093,525
0.094,525
0.095,528
0.096,535
0.097,540
0.098,549
0.099,553
0.1,555
0.101,550
0.102,528
0.103,509
0.104,504
0.105,507
0.106,511
0.107,512
0.108,512
0.109,511
0.11,514
0.111,515
0.112,515
0.113,515
0.114,516
0.115,519
0.116,522
0.117,523
0.118,523
0.119,516
0.12,501
0.121,494
0.122,496
0.123,500
0.124,504
0.125,512
0.126,523
0.127,529
0.128,533
0.129,526
0.13,524
0.131,519
0.132,517
0.133,519
0.134,529
0.135,533
0.136,540
0.137,550
0.138,551
0.139,543
0.14,542
0.141,546
0.142,545
0.143,540
0.144,536
0.145,530
0.146,521
0.147,514
0.148,504
0.149,489
0.15,470
0.151,455
0.152,452
0.153,451
0.154,447
0.155,443
0.156,440
0.157,426
0.158,430
0.159,447
0.16,460
0.161,498
0.162,516
0.163,503
0.164,470
0.165,429
0.166,400
0.167,406
0.168,435
0.169,471
0.17,518
0.171,577
0.172,624
0.173,650
0.174,654
0.175,640
0.176,639
0.177,642
0.178,631
0.179,615
0.18,601
0.181,587
0.182,573
0.183,590
0.184,632
0.185,674
0.186,695
0.187,696
0.188,703
0.189,696
0.19,687
0.191,678
0.192,667
0.193,657
0.194,647
0.195,637
0.196,627
0.197,620
0.198,615
0.199,606
0.2,596
0.201,583
0.202,565
0.203,551
0.204,554
0.205,562
0.206,568
0.207,579
0.208,587
0.209,583
0.21,583
0.211,591
0.212,591
0.213,588
0.214,584
0.215,570
0.216,544
0.217,548
0.218,560
0.219,556
0.22,557
0.221,571
0.222,587
0.223,589
0.224,591
0.225,593
0.226,593
0.227,605
0.228,619
0.229,632
0.23,588
0.231,550
0.232,540
0.233,537
0.234,513
0.235,513
0.236,515
0.237,521
0.238,520
0.239,527
0.24,540
0.241,547
0.242,543
0.243,538
0.244,530
0.245,525
0.246,535
0.247,558
0.248,558
0.249,552
0.25,547
0.251,544
0.252,550
0.253,559
0.254,539
0.255,505
0.256,473
0.257,463
0.258,459
0.259,449
0.26,461
0.261,480
0.262,483
0.263,488
0.264,483
0.265,472
0.266,456
0.267,452
0.268,451
0.269,455
0.27,464
0.271,466
0.272,473
0.273,475
0.274,472
0.275,471
0.276,467
0.277,462
0.278,467
0.279,467
0.28,455
0.281,442
0.282,435
0.283,444
0.284,454
0.285,455
0.286,457
0.287,464
0.288,468
0.289,478
0.29,486
0.291,489
0.292,494
0.293,497
0.294,497
0.295,489
0.296,487
0.297,489
0.298,483
0.299,480
0.3,486
0.301,483
0.302,480
0.303,476
0.304,475
0.305,472
0.306,473
0.307,474
0.308,478
0.309,481
0.31,483
0.311,481
0.312,483
0.313,486
0.314,483
0.315,478
0.316,476
0.317,477
0.318,482
0.319,486
0.32,483
0.321,485
0.322,484
0.323,483
0.324,483
0.325,483
0.326,480
0.327,472
0.328,466
0.329,468
0.33,468
0.331,465
0.332,473
0.333,481
0.334,477
0.335,474
0.336,474
0.337,471
0.338,469
0.339,468
0.34,467
0.341,469
0.342,470
0.343,470
0.344,470
0.345,476
0.346,483
0.347,484
0.348,482
0.349,480
0.35,481
0.351,480
0.352,481
0.353,481
0.354,479
0.355,479
0.356,479
0.357,481
0.358,478
0.359,478
0.36,486
0.361,497
0.362,495
0.363,493
0.364,493
0.365,492
0.366,493
0.367,494
0.368,493
0.369,492
0.37,493
0.371,496
0.372,496
0.373,492
0.374,486
0.375,484
0.376,485
0.377,487
0.378,489
0.379,488
0.38,487
0.381,493
0.382,501
0.383,500
0.384,497
0.385,486
0.386,472
0.387,489
0.388,493
0.389,484
0.39,483
0.391,492
0.392,499
0.393,502
0.394,504
0.395,510
0.396,521
0.397,530
0.398,536
0.399,544
0.4,546
0.401,550
0.402,530
0.403,487
0.404,456
0.405,443
0.406,470
0.407,494
0.408,497
0.409,490
0.41,499
0.411,510
0.412,508
0.413,509
0.414,514
0.415,528
0.416,532
0.417,527
0.418,534
0.419,540
0.42,546
0.421,532
0.422,528
0.423,534
0.424,546
0.425,537
0.426,505
0.427,490
0.428,483
0.429,481
0.43,465
0.431,457
0.432,455
0.433,457
0.434,464
0.435,473
0.436,479
0.437,475
0.438,472
0.439,473
0.44,475
0.441,481
0.442,494
0.443,510
0.444,519
0.445,517
0.446,513
0.447,509
0.448,511
0.449,514
0.45,522
0.451,527
0.452,535
0.453,539
0.454,519
0.455,504
0.456,499
0.457,493
0.458,489
0.459,490
0.46,491
0.461,492
0.462,490
0.463,494
0.464,500
0.465,500
0.466,497
0.467,496
0.468,497
0.469,507
0.47,512
0.471,508
0.472,512
0.473,528
0.474,536
0.475,559
0.476,575
0.477,550
0.478,529
0.479,513
0.48,493
0.481,460
0.482,446
0.483,445
0.484,452
0.485,465
0.486,471
0.487,474
0.488,485
0.489,495
0.49,502
0.491,506
0.492,517
0.493,515
0.494,488
0.495,460
0.496,454
0.497,460
0.498,466
0.499,466
0.5,465
0.501,462
0.502,460
0.503,464
0.504,470
0.505,475
0.506,474
0.507,474
0.508,473
0.509,471
0.51,472
0.511,472
0.512,468
0.513,467
0.514,469
0.515,472
0.516,477
0.517,484
0.518,484
0.519,484
0.52,484
0.521,483
0.522,484
0.523,487
0.524,492
0.525,495
0.526,497
0.527,497
0.528,495
0.529,487
0.53,486
0.531,493
0.532,499
0.533,501
0.534,497
0.535,494
0.536,492
0.537,491
0.538,490
0.539,489
0.54,493
0.541,491
0.542,484
0.543,477
0.544,474
0.545,478
0.546,487
0.547,498
0.548,499
0.549,496
0.55,495
0.551,496
0.552,496
0.553,495
0.554,484
0.555,468
0.556,459
0.557,452
0.558,450
0.559,454
0.56,459
0.561,463
0.562,461
0.563,457
0.564,461
0.565,470
0.566,479
0.567,496
0.568,526
0.569,571
0.57,615
0.571,642
0.572,674
0.573,716
0.574,739
0.575,754
0.576,776
0.577,794
0.578,802
0.579,801
0.58,804
0.581,802
0.582,796
0.583,780
0.584,761
0.585,738
0.586,704
0.587,659
0.588,611
0.589,549
0.59,493
0.591,449
0.592,431
0.593,421
0.594,396
0.595,364
0.596,349
0.597,348
0.598,363
0.599,376
0.6,388
0.601,400
0.602,399
0.603,397
0.604,400
0.605,398
0.606,391
0.607,383
0.608,378
0.609,375
0.61,373
0.611,375
0.612,376
0.613,379
0.614,381
0.615,391
0.616,407
0.617,404
0.618,403
0.619,409
0.62,405
0.621,401
0.622,384
0.623,390
0.624,420
0.625,454
0.626,467
0.627,484
0.628,491
0.629,496
0.63,501
0.631,509
0.632,511
0.633,518
0.634,528
0.635,533
0.636,543
0.637,559
0.638,571
0.639,594
0.64,604
0.641,572
0.642,535
0.643,517
0.644,511
0.645,502
0.646,487
0.647,469
0.648,441
0.649,428
0.65,455
0.651,479
0.652,484
0.653,497
0.654,521
0.655,551
0.656,568
0.657,580
0.658,574
0.659,557
0.66,552
0.661,536
0.662,533
0.663,537
0.664,553
0.665,550
0.666,537
0.667,530
0.668,540
0.669,543
0.67,536
0.671,528
0.672,535
0.673,532
0.674,533
0.675,530
0.676,533
0.677,521
0.678,496
0.679,498
0.68,504
0.681,525
0.682,563
0.683,591
0.684,586
0.685,563
0.686,547
0.687,516
0.688,487
0.689,464
0.69,468
0.691,491
0.692,507
0.693,512
0.694,513
0.695,517
0.696,518
0.697,521
0.698,529
0.699,531
0.7,532
0.701,532
0.702,531
0.703,526
0.704,518
0.705,511
0.706,502
0.707,494
0.708,484
0.709,479
0.71,474
0.711,476
0.712,487
0.713,512
0.714,537
0.715,550
0.716,547
0.717,534
0.718,517
0.719,501
0.72,486
0.721,477
0.722,481
0.723,484
0.724,482
0.725,473
0.726,469
0.727,473
0.728,486
0.729,506
0.73,525
0.731,543
0.732,552
0.733,557
0.734,548
0.735,543
0.736,544
0.737,543
0.738,533
0.739,525
0.74,519
0.741,516
0.742,509
0.743,490
0.744,472
0.745,469
0.746,488
0.747,511
0.748,520
0.749,519
0.75,524
0.751,537
0.752,556
0.753,566
0.754,566
0.755,559
0.756,552
0.757,557
0.758,556
0.759,557
0.76,559
0.761,570
0.762,581
0.763,590
0.764,597
0.765,604
0.766,601
0.767,598
0.768,592
0.769,585
0.77,582
0.771,577
0.772,573
0.773,576
0.774,579
0.775,580
0.776,591
0.777,600
0.778,604
0.779,603
0.78,605
0.781,614
0.782,614
0.783,606
0.784,597
0.785,592
0.786,590
0.787,589
0.788,588
0.789,585
0.79,580
0.791,570
0.792,569
0.793,572
0.794,574
0.795,574
0.796,566
0.797,560
0.798,557
0.799,560
0.8,564
0.801,563
0.802,567
0.803,567
0.804,565
0.805,564
0.806,564
0.807,566
0.808,566
0.809,569
0.81,572
0.811,571
0.812,569
0.813,565
0.814,559
0.815,560
0.816,556
0.817,547
0.818,541
0.819,530
0.82,520
0.821,516
0.822,511
0.823,510
0.824,516
0.825,525
0.826,528
0.827,527
0.828,524
0.829,517
0.83,517
0.831,515
0.832,512
0.833,511
0.834,507
0.835,503
0.836,502
0.837,505
0.838,508
0.839,511
0.84,511
0.841,509
0.842,510
0.843,512
0.844,502
0.845,494
0.846,490
0.847,485
0.848,479
0.849,479
0.85,480
0.851,480
0.852,481
0.853,479
0.854,477
0.855,486
0.856,490
0.857,487
0.858,486
0.859,484
0.86,487
0.861,487
0.862,491
0.863,487
0.864,482
0.865,487
0.866,496
0.867,503
0.868,518
0.869,514
0.87,494
0.871,480
0.872,477
0.873,477
0.874,478
0.875,477
0.876,473
0.877,470
0.878,472
0.879,467
0.88,465
0.881,469
0.882,478
0.883,485
0.884,486
0.885,488
0.886,490
0.887,492
0.888,489
0.889,489
0.89,489
0.891,487
0.892,481
0.893,481
0.894,483
0.895,489
0.896,485
0.897,478
0.898,473
0.899,471
0.9,468
0.901,473
0.902,469
0.903,468
0.904,463
0.905,465
0.906,474
0.907,485
0.908,491
0.909,496
0.91,495
0.911,498
0.912,496
0.913,498
0.914,497
0.915,498
0.916,499
0.917,496
0.918,494
0.919,490
0.92,490
0.921,491
0.922,494
0.923,496
0.924,497
0.925,501
0.926,507
0.927,510
0.928,507
0.929,500
0.93,492
0.931,491
0.932,491
0.933,486
0.934,484
0.935,488
0.936,491
0.937,491
0.938,489
0.939,493
0.94,495
0.941,493
0.942,489
0.943,487
0.944,490
0.945,480
0.946,463
0.947,439
0.948,419
0.949,396
0.95,384
0.951,382
0.952,386
0.953,391
0.954,400
0.955,413
0.956,429
0.957,444
0.958,456
0.959,462
0.96,462
0.961,466
0.962,441
0.963,418
0.964,421
0.965,434
0.966,450
0.967,455
0.968,461
0.969,465
0.97,470
0.971,473
0.972,472
0.973,476
0.974,495
0.975,519
0.976,539
0.977,564
0.978,575
0.979,566
0.98,553
0.981,538
0.982,533
0.983,537
0.984,535
0.985,529
0.986,514
0.987,494
0.988,467
0.989,446
0.99,448
0.991,455
0.992,458
0.993,467
0.994,477
0.995,480
0.996,482
0.997,488
0.998,497
0.999,505
1.0,510
1.001,511
1.002,508
1.003,506
1.004,507
1.005,517
1.006,521
1.007,521
1.008,513
1.009,505
1.01,507
1.011,505
1.012,496
1.013,485
1.014,478
1.015,496
1.016,524
1.017,547
1.018,562
1.019,568
1.02,568
1.021,565
1.022,559
1.023,551
1.024,547
1.025,544
1.026,547
1.027,549
1.028,543
1.029,542
1.03,535
1.031,520
1.032,522
1.033,532
1.034,531
1.035,529
1.036,531
1.037,537
1.038,550
1.039,551
1.04,554
1.041,561
1.042,563
1.043,564
1.044,561
1.045,551
1.046,541
1.047,537
1.048,540
1.049,555
1.05,560
1.051,539
1.052,515
1.053,504
1.054,500
1.055,495
1.056,485
1.057,473
1.058,468
1.059,476
1.06,489
1.061,498
1.062,511
1.063,515
1.064,504
1.065,489
1.066,491
1.067,510
1.068,514
1.069,515
1.07,515
1.071,508
1.072,486
1.073,471
1.074,481
1.075,496
1.076,500
1.077,504
1.078,507
1.079,507
1.08,521
1.081,532
1.082,526
1.083,509
1.084,497
1.085,491
1.086,487
1.087,486
1.088,486
1.089,497
1.09,507
1.091,501
1.092,499
1.093,504
1.094,507
1.095,508
1.096,508
1.097,505
1.098,499
1.099,491
1.1,484
1.101,472
1.102,467
1.103,473
1.104,480
1.105,495
1.106,512
1.107,529
1.108,539
1.109,542
1.11,543
1.111,540
1.112,536
1.113,533
1.114,533
1.115,536
1.116,535
1.117,532
1.118,530
1.119,524
1.12,520
1.121,517
1.122,510
1.123,505
1.124,506
1.125,516
1.126,521
1.127,524
1.128,524
1.129,527
1.13,531
1.131,529
1.132,527
1.133,524
1.134,523
1.135,530
1.136,548
1.137,565
1.138,579
1.139,588
1.14,591
1.141,600
1.142,625
1.143,646
1.144,660
1.145,678
1.146,700
1.147,721
1.148,732
1.149,743
1.15,756
1.151,769
1.152,779
1.153,785
1.154,795
1.155,797
1.156,796
1.157,789
1.158,780
1.159,767
1.16,748
1.161,723
1.162,694
1.163,663
1.164,625
1.165,580
1.166,535
1.167,496
1.168,459
1.169,426
1.17,401
1.171,375
1.172,355
1.173,339
1.174,322
1.175,307
1.176,290
1.177,280
1.178,280
1.179,280
1.18,281
1.181,293
1.182,319
1.183,345
1.184,358
1.185,363
1.186,369
1.187,377
1.188,386
1.189,391
1.19,396
1.191,400
1.192,406
1.193,416
1.194,430
1.195,444
1.196,450
1.197,451
1.198,456
1.199,462
1.2,465
1.201,464
1.202,474
1.203,487
1.204,492
1.205,495
1.206,500
1.207,504
1.208,504
1.209,496
1.21,496
1.211,499
1.212,504
1.213,502
1.214,499
1.215,501
1.216,499
1.217,491
1.218,488
1.219,489
1.22,489
1.221,497
1.222,507
1.223,508
1.224,505
1.225,504
1.226,510
1.227,508
1.228,511
1.229,519
1.23,526
1.231,524
1.232,525
1.233,521
1.234,524
1.235,525
1.236,523
1.237,524
1.238,518
1.239,515
1.24,526
1.241,532
1.242,539
1.243,544
1.244,539
1.245,534
1.246,536
1.247,524
1.248,517
1.249,516
1.25,516
1.251,513
1.252,524
1.253,534
1.254,543
1.255,551
1.256,547
1.257,541
1.258,543
1.259,549
1.26,532
1.261,515
1.262,511
1.263,522
1.264,529
1.265,531
1.266,537
1.267,544
1.268,542
1.269,524
1.27,520
1.271,520
1.272,521
1.273,526
1.274,531
1.275,548
1.276,560
1.277,561
1.278,559
1.279,551
1.28,539
1.281,537
1.282,543
1.283,541
1.284,542
1.285,531
1.286,529
1.287,531
1.288,532
1.289,537
1.29,540
1.291,543
1.292,543
1.293,545
1.294,553
1.295,569
1.296,588
1.297,584
1.298,557
1.299,528
1.3,511
1.301,506
1.302,513
1.303,520
1.304,525
1.305,529
1.306,536
1.307,541
1.308,547
1.309,545
1.31,545
1.311,545
1.312,537
1.313,535
1.314,532
1.315,538
1.316,542
1.317,544
1.318,542
1.319,539
1.32,541
1.321,543
1.322,541
1.323,534
1.324,527
1.325,520
1.326,524
1.327,531
1.328,534
1.329,536
1.33,540
1.331,544
1.332,546
1.333,539
1.334,524
1.335,521
1.336,525
1.337,529
1.338,535
1.339,541
1.34,545
1.341,548
1.342,549
1.343,562
1.344,566
1.345,571
1.346,578
1.347,580
1.348,579
1.349,575
1.35,581
1.351,596
1.352,599
1.353,570
1.354,543
1.355,518
1.356,507
1.357,514
1.358,525
1.359,531
1.36,541
1.361,550
1.362,555
1.363,556
1.364,554
1.365,557
1.366,558
1.367,555
1.368,551
1.369,545
1.37,542
1.371,543
1.372,543
1.373,541
1.374,543
1.375,544
1.376,535
1.377,529
1.378,524
1.379,525
1.38,527
1.381,523
1.382,528
1.383,529
1.384,531
1.385,535
1.386,540
1.387,540
1.388,537
1.389,530
1.39,516
1.391,517
1.392,518
1.393,503
1.394,497
1.395,498
1.396,491
1.397,477
1.398,480
1.399,487
1.4,498
1.401,497
1.402,490
1.403,485
1.404,481
1.405,480
1.406,479
1.407,478
1.408,471
1.409,465
1.41,465
1.411,470
1.412,470
1.413,471
1.414,474
1.415,480
1.416,490
1.417,513
1.418,537
1.419,558
1.42,519
1.421,465
1.422,438
1.423,429
1.424,426
1.425,428
1.426,422
1.427,421
1.428,423
1.429,427
1.43,430
1.431,434
1.432,437
1.433,436
1.434,430
1.435,430
1.436,433
1.437,438
1.438,439
1.439,435
1.44,433
1.441,437
1.442,448
1.443,454
1.444,463
1.445,482
1.446,502
1.447,521
1.448,505
1.449,469
1.45,444
1.451,431
1.452,432
1.453,439
1.454,446
1.455,450
1.456,446
1.457,442
1.458,445
1.459,445
1.46,444
1.461,447
1.462,449
1.463,459
1.464,461
1.465,456
1.466,457
1.467,462
1.468,464
1.469,464
1.47,462
1.471,462
1.472,466
1.473,468
1.474,476
1.475,475
1.476,473
1.477,473
1.478,467
1.479,459
1.48,460
1.481,463
1.482,463
1.483,466
1.484,463
1.485,463
1.486,460
1.487,462
1.488,463
1.489,463
1.49,468
1.491,470
1.492,473
1.493,474
1.494,474
1.495,473
1.496,472
1.497,474
1.498,476
1.499,476
1.5,476
1.501,479
1.502,475
1.503,463
1.504,459
1.505,462
1.506,465
1.507,468
1.508,470
1.509,472
1.51,474
1.511,477
1.512,475
1.513,476
1.514,475
1.515,472
1.516,471
1.517,473
1.518,476
1.519,479
1.52,487
1.521,493
1.522,493
1.523,492
1.524,495
1.525,492
1.526,491
1.527,495
1.528,499
1.529,496
1.53,493
1.531,492
1.532,495
1.533,492
1.534,488
1.535,489
1.536,494
1.537,497
1.538,496
1.539,491
1.54,486
1.541,490
1.542,495
1.543,495
1.544,491
1.545,488
1.546,488
1.547,489
1.548,491
1.549,489
1.55,489
1.551,497
1.552,504
1.553,507
1.554,509
1.555,509
1.556,505
1.557,503
1.558,503
1.559,500
1.56,499
1.561,499
1.562,497
1.563,497
1.564,497
1.565,497
1.566,497
1.567,497
1.568,497
1.569,499
1.57,501
1.571,503
1.572,505
1.573,504
1.574,501
1.575,498
1.576,493
1.577,489
1.578,488
1.579,490
1.58,494
1.581,494
1.582,495
1.583,494
1.584,496
1.585,497
1.586,495
1.587,494
1.588,493
1.589,493
1.59,497
1.591,497
1.592,496
1.593,497
1.594,499
1.595,506
1.596,514
1.597,516
1.598,514
1.599,511
1.6,514
1.601,517
1.602,517
1.603,514
1.604,512
1.605,512
1.606,513
1.607,515
1.608,517
1.609,517
1.61,521
1.611,520
1.612,522
1.613,524
1.614,521
1.615,513
1.616,501
1.617,490
1.618,487
1.619,502
1.62,523
1.621,531
1.622,538
1.623,543
1.624,544
1.625,547
1.626,565
1.627,563
1.628,543
1.629,530
1.63,525
1.631,523
1.632,512
1.633,499
1.634,492
1.635,499
1.636,515
1.637,519
1.638,515
1.639,518
1.64,523
1.641,523
1.642,532
1.643,528
1.644,507
1.645,488
1.646,476
1.647,473
1.648,488
1.649,501
1.65,498
1.651,500
1.652,504
1.653,509
1.654,492
1.655,472
1.656,476
1.657,501
1.658,531
1.659,555
1.66,557
1.661,532
1.662,492
1.663,462
1.664,452
1.665,447
1.666,450
1.667,457
1.668,469
1.669,473
1.67,465
1.671,480
1.672,487
1.673,495
1.674,515
1.675,521
1.676,489
1.677,462
1.678,458
1.679,462
1.68,468
1.681,464
1.682,457
1.683,454
1.684,463
1.685,466
1.686,470
1.687,475
1.688,481
1.689,480
1.69,479
1.691,480
1.692,484
1.693,486
1.694,490
1.695,490
1.696,491
1.697,495
1.698,499
1.699,495
1.7,492
1.701,484
1.702,474
1.703,471
1.704,468
1.705,473
1.706,480
1.707,481
1.708,483
1.709,486
1.71,483
1.711,485
1.712,496
1.713,497
1.714,496
1.715,494
1.716,497
1.717,502
1.718,503
1.719,506
1.72,505
1.721,502
1.722,499
1.723,507
1.724,525
1.725,536
1.726,542
1.727,562
1.728,580
1.729,601
1.73,627
1.731,643
1.732,655
1.733,672
1.734,686
1.735,702
1.736,718
1.737,741
1.738,753
1.739,757
1.74,768
1.741,770
1.742,766
1.743,773
1.744,764
1.745,746
1.746,738
1.747,726
1.748,705
1.749,675
1.75,637
1.751,590
1.752,551
1.753,527
1.754,504
1.755,491
1.756,487
1.757,479
1.758,441
1.759,406
1.76,374
1.761,346
1.762,320
1.763,304
1.764,305
1.765,310
1.766,312
1.767,311
1.768,287
1.769,271
1.77,293
1.771,317
1.772,332
1.773,339
1.774,345
1.775,344
1.776,340
1.777,348
1.778,373
1.779,398
1.78,413
1.781,413
1.782,415
1.783,426
1.784,433
1.785,444
1.786,453
1.787,466
1.788,479
1.789,486
1.79,483
1.791,484
1.792,490
1.793,488
1.794,485
1.795,487
1.796,491
1.797,496
1.798,498
1.799,492
1.8,488
1.801,494
1.802,502
1.803,511
1.804,512
1.805,502
1.806,479
1.807,438
1.808,415
1.809,405
1.81,419
1.811,427
1.812,423
1.813,422
1.814,439
1.815,455
1.816,476
1.817,502
1.818,518
1.819,527
1.82,530
1.821,529
1.822,529
1.823,531
1.824,535
1.825,537
1.826,536
1.827,532
1.828,526
1.829,521
1.83,519
1.831,513
1.832,502
1.833,482
1.834,474
1.835,477
1.836,478
1.837,476
1.838,459
1.839,480
1.84,505
1.841,504
1.842,497
1.843,494
1.844,503
1.845,514
1.846,514
1.847,509
1.848,506
1.849,519
1.85,542
1.851,551
1.852,545
1.853,545
1.854,544
1.855,543
1.856,540
1.857,537
1.858,536
1.859,535
1.86,541
1.861,543
1.862,541
1.863,533
1.864,533
1.865,538
1.866,543
1.867,552
1.868,561
1.869,579
1.87,584
1.871,586
1.872,550
1.873,517
1.874,510
1.875,518
1.876,522
1.877,528
1.878,529
1.879,538
1.88,556
1.881,584
1.882,600
1.883,605
1.884,593
1.885,552
1.886,517
1.887,518
1.888,511
1.889,519
1.89,516
1.891,519
1.892,510
1.893,508
1.894,519
1.895,536
1.896,562
1.897,574
1.898,559
1.899,533
1.9,524
1.901,531
1.902,539
1.903,529
1.904,521
1.905,518
1.906,522
1.907,527
1.908,525
1.909,522
1.91,523
1.911,524
1.912,521
1.913,517
1.914,526
1.915,524
1.916,521
1.917,537
1.918,556
1.919,564
1.92,561
1.921,553
1.922,547
1.923,540
1.924,543
1.925,551
1.926,547
1.927,532
1.928,523
1.929,517
1.93,523
1.931,536
1.932,552
1.933,558
1.934,564
1.935,575
1.936,576
1.937,579
1.938,579
1.939,580
1.94,584
1.941,573
1.942,555
1.943,538
1.944,510
1.945,484
1.946,466
1.947,449
1.948,426
1.949,405
1.95,415
1.951,464
1.952,519
1.953,567
1.954,620
1.955,655
1.956,651
1.957,642
1.958,644
1.959,636
1.96,619
1.961,601
1.962,585
1.963,587
1.964,601
1.965,601
1.966,590
1.967,572
1.968,564
1.969,567
1.97,566
1.971,564
1.972,562
1.973,555
1.974,555
1.975,566
1.976,567
1.977,554
1.978,546
1.979,552
1.98,575
1.981,594
1.982,602
1.983,569
1.984,527
1.985,527
1.986,563
1.987,571
1.988,552
1.989,531
1.99,530
1.991,530
1.992,508
1.993,495
1.994,484
1.995,487
1.996,496
1.997,500
1.998,499
1.999,503
2.0,510
2.001,515
2.002,516
2.003,507
2.004,502
2.005,503
2.006,494
2.007,479
2.008,474
2.009,475
2.01,483
2.011,483
2.012,473
2.013,472
2.014,480
2.015,480
2.016,466
2.017,444
2.018,431
2.019,432
2.02,439
2.021,452
2.022,464
2.023,480
2.024,494
2.025,503
2.026,507
2.027,507
2.028,501
2.029,498
2.03,486
2.031,465
2.032,444
2.033,426
2.034,417
2.035,416
2.036,419
2.037,412
2.038,423
2.039,441
2.04,442
2.041,424
2.042,418
2.043,422
2.044,422
2.045,419
2.046,420
2.047,419
2.048,435
2.049,451
2.05,469
2.051,481
2.052,491
2.053,487
2.054,482
2.055,476
2.056,469
2.057,466
2.058,466
2.059,472
2.06,480
2.061,485
2.062,495
2.063,505
2.064,505
2.065,499
2.066,485
2.067,484
2.068,484
2.069,475
2.07,460
2.071,443
2.072,440
2.073,433
2.074,431
2.075,427
2.076,427
2.077,440
2.078,447
2.079,457
2.08,477
2.081,496
2.082,510
2.083,519
2.084,529
2.085,536
2.086,538
2.087,531
2.088,527
2.089,526
2.09,528
2.091,527
2.092,525
2.093,521
2.094,516
2.095,512
2.096,502
2.097,494
2.098,487
2.099,484
2.1,480
2.101,479
2.102,476
2.103,473
2.104,477
2.105,478
2.106,480
2.107,493
2.108,506
2.109,513
2.11,515
2.111,514
2.112,513
2.113,512
2.114,512
2.115,510
2.116,505
2.117,507
2.118,504
2.119,500
2.12,498
2.121,493
2.122,496
2.123,498
2.124,504
2.125,512
2.126,518
2.127,519
2.128,512
2.129,507
2.13,509
2.131,515
2.132,511
2.133,505
2.134,503
2.135,499
2.136,501
2.137,506
2.138,511
2.139,515
2.14,515
2.141,515
2.142,513
2.143,513
2.144,512
2.145,511
2.146,508
2.147,509
2.148,513
2.149,517
2.15,519
2.151,515
2.152,515
2.153,512
2.154,512
2.155,513
2.156,510
2.157,512
2.158,516
2.159,519
2.16,518
2.161,519
2.162,522
2.163,524
2.164,519
2.165,513
2.166,511
2.167,512
2.168,515
2.169,518
2.17,519
2.171,520
2.172,522
2.173,519
2.174,513
2.175,511
2.176,512
2.177,513
2.178,515
2.179,515
2.18,513
2.181,513
2.182,516
2.183,518
2.184,521
2.185,519
2.186,516
2.187,514
2.188,515
2.189,515
2.19,519
2.191,520
2.192,521
2.193,527
2.194,531
2.195,531
2.196,526
2.197,527
2.198,532
2.199,534
2.2,536
2.201,537
2.202,537
2.203,537
2.204,537
2.205,537
2.206,533
2.207,532
2.208,530
2.209,531
2.21,537
2.211,543
2.212,546
2.213,545
2.214,543
2.215,538
2.216,536
2.217,535
2.218,535
2.219,537
2.22,540
2.221,543
2.222,544
2.223,543
2.224,543
2.225,543
2.226,543
2.227,540
2.228,538
2.229,535
2.23,529
2.231,526
2.232,523
2.233,521
2.234,519
2.235,519
2.236,518
2.237,518
2.238,515
2.239,513
2.24,511
2.241,511
2.242,511
2.243,512
2.244,514
2.245,513
2.246,511
2.247,509
2.248,508
2.249,507
2.25,504
2.251,501
2.252,501
2.253,500
2.254,501
2.255,500
2.256,501
2.257,501
2.258,502
2.259,501
2.26,500
2.261,498
2.262,496
2.263,496
2.264,498
2.265,503
2.266,510
2.267,515
2.268,520
2.269,517
2.27,513
2.271,507
2.272,503
2.273,504
2.274,504
2.275,505
2.276,506
2.277,509
2.278,513
2.279,515
2.28,512
2.281,508
2.282,505
2.283,504
2.284,505
2.285,503
2.286,504
2.287,504
2.288,502
2.289,500
2.29,499
2.291,499
2.292,500
2.293,503
2.294,505
2.295,504
2.296,502
2.297,502
2.298,505
2.299,505
2.3,505
2.301,505
2.302,505
2.303,506
2.304,510
2.305,511
2.306,508
2.307,504
2.308,502
2.309,502
2.31,504
2.311,501
2.312,496
2.313,490
2.314,487
2.315,487
2.316,487
2.317,491
2.318,497
2.319,503
2.32,510
2.321,520
2.322,531
2.323,543
2.324,558
2.325,571
2.326,589
2.327,604
2.328,623
2.329,641
2.33,659
2.331,670
2.332,682
2.333,693
2.334,705
2.335,720
2.336,736
2.337,750
2.338,761
2.339,767
2.34,769
2.341,768
2.342,761
2.343,750
2.344,732
2.345,710
2.346,686
2.347,663
2.348,635
2.349,598
2.35,557
2.351,511
2.352,459
2.353,408
2.354,370
2.355,346
2.356,327
2.357,308
2.358,292
2.359,281
2.36,275
2.361,271
2.362,269
2.363,269
2.364,270
2.365,273
2.366,274
2.367,275
2.368,279
2.369,285
2.37,294
2.371,304
2.372,316
2.373,325
2.374,335
2.375,348
2.376,364
2.377,380
2.378,391
2.379,403
2.38,414
2.381,428
2.382,440
2.383,447
2.384,454
2.385,460
2.386,467
2.387,473
2.388,477
2.389,481
2.39,486
2.391,490
2.392,494
2.393,496
2.394,496
2.395,496
2.396,501
2.397,504
2.398,504
2.399,506
2.4,509
2.401,508
2.402,508
2.403,507
2.404,507
2.405,505
2.406,504
2.407,505
2.408,505
2.409,504
2.41,504
2.411,505
2.412,508
2.413,508
2.414,507
2.415,508
2.416,509
2.417,509
2.418,513
2.419,517
2.42,514
2.421,509
2.422,509
2.423,508
2.424,511
2.425,514
2.426,514
2.427,514
2.428,516
2.429,517
2.43,512
2.431,506
2.432,504
2.433,503
2.434,505
2.435,507
2.436,509
2.437,510
2.438,507
2.439,507
2.44,505
2.441,503
2.442,504
2.443,504
2.444,505
2.445,507
2.446,510
2.447,512
2.448,508
2.449,506
2.45,507
2.451,513
2.452,518
2.453,518
2.454,516
2.455,518
2.456,519
2.457,518
2.458,521
2.459,524
2.46,526
2.461,525
2.462,524
2.463,521
2.464,521
2.465,523
2.466,528
2.467,531
2.468,529
2.469,524
2.47,522
2.471,519
2.472,519
2.473,518
2.474,516
2.475,517
2.476,519
2.477,519
2.478,518
2.479,518
2.48,520
2.481,519
2.482,518
2.483,517
2.484,521
2.485,522
2.486,523
2.487,522
2.488,526
2.489,533
2.49,536
2.491,537
2.492,536
2.493,534
2.494,532
2.495,531
2.496,532
2.497,535
2.498,535
2.499,533
2.5,531
2.501,530
2.502,532
2.503,536
2.504,541
2.505,546
2.506,546
2.507,545
2.508,546
2.509,548
2.51,550
2.511,551
2.512,551
2.513,547
2.514,545
2.515,547
2.516,551
2.517,556
2.518,558
2.519,559
2.52,559
2.521,562
2.522,568
2.523,570
2.524,567
2.525,568
2.526,567
2.527,568
2.528,570
2.529,573
2.53,571
2.531,571
2.532,577
2.533,582
2.534,580
2.535,583
2.536,581
2.537,571
2.538,559
2.539,554
2.54,551
2.541,552
2.542,552
2.543,555
2.544,563
2.545,569
2.546,571
2.547,571
2.548,569
2.549,566
2.55,564
2.551,567
2.552,572
2.553,571
2.554,566
2.555,567
2.556,568
2.557,563
2.558,561
2.559,561
2.56,558
2.561,548
2.562,544
2.563,540
2.564,537
2.565,535
2.566,535
2.567,540
2.568,539
2.569,537
2.57,537
2.571,537
2.572,540
2.573,539
2.574,535
2.575,532
2.576,530
2.577,524
2.578,524
2.579,524
2.58,517
2.581,512
2.582,508
2.583,502
2.584,494
2.585,491
2.586,488
2.587,489
2.588,491
2.589,492
2.59,492
2.591,492
2.592,493
2.593,493
2.594,493
2.595,496
2.596,495
2.597,496
2.598,494
2.599,499
2.6,497
2.601,487
2.602,476
2.603,475
2.604,471
2.605,467
2.606,464
2.607,463
2.608,460
2.609,460
2.61,459
2.611,460
2.612,462
2.613,464
2.614,465
2.615,463
2.616,462
2.617,460
2.618,458
2.619,459
2.62,461
2.621,461
2.622,461
2.623,463
2.624,466
2.625,467
2.626,463
2.627,457
2.628,452
2.629,448
2.63,449
2.631,450
2.632,455
2.633,457
2.634,460
2.635,462
2.636,461
2.637,461
2.638,459
2.639,456
2.64,457
2.641,458
2.642,460
2.643,463
2.644,463
2.645,465
2.646,471
2.647,470
2.648,472
2.649,472
2.65,477
2.651,481
2.652,469
2.653,454
2.654,449
2.655,452
2.656,455
2.657,460
2.658,467
2.659,468
2.66,470
2.661,473
2.662,474
2.663,472
2.664,472
2.665,473
2.666,473
2.667,475
2.668,476
2.669,478
2.67,480
2.671,480
2.672,480
2.673,478
2.674,474
2.675,474
2.676,470
2.677,465
2.678,464
2.679,470
2.68,476
2.681,482
2.682,483
2.683,482
2.684,484
2.685,487
2.686,487
2.687,487
2.688,484
2.689,481
2.69,483
2.691,484
2.692,488
2.693,489
2.694,486
2.695,484
2.696,486
2.697,487
2.698,489
2.699,484
2.7,483
2.701,481
2.702,485
2.703,489
2.704,491
2.705,494
2.706,492
2.707,491
2.708,494
2.709,488
2.71,480
2.711,476
2.712,480
2.713,487
2.714,488
2.715,485
2.716,481
2.717,483
2.718,483
2.719,486
2.72,484
2.721,484
2.722,495
2.723,500
2.724,502
2.725,500
2.726,497
2.727,498
2.728,498
2.729,495
2.73,490
2.731,488
2.732,489
2.733,491
2.734,488
2.735,489
2.736,494
2.737,497
2.738,499
2.739,504
2.74,505
2.741,505
2.742,505
2.743,502
2.744,500
2.745,499
2.746,495
2.747,497
2.748,509
2.749,508
2.75,500
2.751,499
2.752,500
2.753,501
2.754,497
2.755,497
2.756,495
2.757,495
2.758,488
2.759,489
2.76,499
2.761,498
2.762,497
2.763,491
2.764,491
2.765,496
2.766,499
2.767,500
2.768,501
2.769,500
2.77,502
2.771,502
2.772,498
2.773,496
2.774,495
2.775,497
2.776,497
2.777,494
2.778,492
2.779,491
2.78,494
2.781,493
2.782,496
2.783,497
2.784,498
2.785,500
2.786,499
2.787,496
2.788,496
2.789,498
2.79,500
2.791,507
2.792,511
2.793,512
2.794,510
2.795,508
2.796,512
2.797,512
2.798,516
2.799,519
2.8,521
2.801,520
2.802,519
2.803,515
2.804,515
2.805,518
2.806,519
2.807,515
2.808,509
2.809,505
2.81,505
2.811,507
2.812,509
2.813,512
2.814,513
2.815,517
2.816,513
2.817,505
2.818,493
2.819,493
2.82,499
2.821,504
2.822,503
2.823,503
2.824,503
2.825,505
2.826,503
2.827,498
2.828,494
2.829,492
2.83,488
2.831,487
2.832,486
2.833,487
2.834,487
2.835,487
2.836,484
2.837,483
2.838,482
2.839,483
2.84,487
2.841,491
2.842,495
2.843,498
2.844,499
2.845,497
2.846,485
2.847,476
2.848,476
2.849,483
2.85,487
2.851,492
2.852,497
2.853,495
2.854,493
2.855,488
2.856,482
2.857,479
2.858,480
2.859,483
2.86,486
2.861,488
2.862,491
2.863,491
2.864,489
2.865,487
2.866,487
2.867,487
2.868,486
2.869,488
2.87,491
2.871,493
2.872,499
2.873,496
2.874,487
2.875,484
2.876,487
2.877,489
2.878,492
2.879,495
2.88,495
2.881,494
2.882,496
2.883,494
2.884,487
2.885,488
2.886,492
2.887,497
2.888,501
2.889,503
2.89,504
2.891,501
2.892,501
2.893,504
2.894,499
2.895,497
2.896,499
2.897,502
2.898,506
2.899,505
2.9,499
2.901,494
2.902,488
2.903,488
2.904,490
2.905,491
2.906,499
2.907,508
2.908,521
2.909,531
2.91,539
2.911,549
2.912,559
2.913,564
2.914,575
2.915,593
2.916,616
2.917,640
2.918,667
2.919,679
2.92,678
2.921,675
2.922,686
2.923,687
2.924,700
2.925,723
2.926,747
2.927,761
2.928,764
2.929,762
2.93,759
2.931,748
2.932,734
2.933,714
2.934,694
2.935,669
2.936,643
2.937,615
2.938,584
2.939,547
2.94,502
2.941,459
2.942,411
2.943,361
2.944,331
2.945,330
2.946,329
2.947,319
2.948,313
2.949,310
2.95,304
2.951,304
2.952,302
2.953,297
2.954,297
2.955,301
2.956,303
2.957,307
2.958,312
2.959,320
2.96,332
2.961,344
2.962,362
2.963,376
2.964,393
2.965,409
2.966,419
2.967,431
2.968,445
2.969,443
2.97,446
2.971,448
2.972,445
2.973,448
2.974,448
2.975,451
2.976,454
2.977,461
2.978,473
2.979,487
2.98,499
2.981,510
2.982,521
2.983,527
2.984,525
2.985,524
2.986,521
2.987,522
2.988,524
2.989,522
2.99,515
2.991,519
2.992,523
2.993,512
2.994,495
2.995,496
2.996,490
2.997,485
2.998,485
2.999,489
3.0,492
3.001,505
3.002,524
3.003,535
3.004,536
3.005,536
3.006,536
3.007,537
3.008,543
3.009,544
3.01,545
3.011,547
3.012,539
3.013,521
3.014,518
3.015,526
3.016,527
3.017,523
3.018,512
3.019,508
3.02,511
3.021,511
3.022,512
3.023,513
3.024,504
3.025,497
3.026,501
3.027,513
3.028,527
3.029,542
3.03,557
3.031,569
3.032,579
3.033,563
3.034,531
3.035,515
3.036,513
3.037,512
3.038,512
3.039,512
3.04,519
3.041,519
3.042,515
3.043,501
3.044,484
3.045,473
3.046,473
3.047,475
3.048,483
3.049,502
3.05,525
3.051,537
3.052,546
3.053,548
3.054,546
3.055,544
3.056,547
3.057,553
3.058,560
3.059,568
3.06,563
3.061,555
3.062,543
3.063,528
3.064,520
3.065,530
3.066,535
3.067,536
3.068,539
3.069,539
3.07,545
3.071,550
3.072,550
3.073,546
3.074,542
3.075,539
3.076,535
3.077,532
3.078,537
3.079,543
3.08,544
3.081,543
3.082,540
3.083,538
3.084,537
3.085,537
3.086,531
3.087,530
3.088,538
3.089,546
3.09,553
3.091,555
3.092,564
3.093,567
3.094,559
3.095,550
3.096,539
3.097,537
3.098,540
3.099,536
3.1,542
3.101,545
3.102,545
3.103,551
3.104,552
3.105,554
3.106,556
3.107,555
3.108,555
3.109,558
3.11,560
3.111,561
3.112,566
3.113,572
3.114,570
3.115,569
3.116,575
3.117,587
3.118,587
3.119,583
3.12,569
3.121,558
3.122,557
3.123,550
3.124,552
3.125,554
3.126,559
3.127,560
3.128,559
3.129,562
3.13,571
3.131,574
3.132,572
3.133,573
3.134,568
3.135,563
3.136,565
3.137,560
3.138,563
3.139,572
3.14,576
3.141,572
3.142,575
3.143,578
3.144,572
3.145,564
3.146,561
3.147,563
3.148,565
3.149,573
3.15,579
3.151,583
3.152,584
3.153,568
3.154,549
3.155,544
3.156,531
3.157,525
3.158,525
3.159,526
3.16,529
3.161,531
3.162,531
3.163,527
3.164,523
3.165,519
3.166,519
3.167,514
3.168,507
3.169,505
3.17,506
3.171,506
3.172,503
3.173,505
3.174,502
3.175,499
3.176,501
3.177,504
3.178,505
3.179,503
3.18,499
3.181,489
3.182,476
3.183,469
3.184,467
3.185,476
3.186,482
3.187,480
3.188,478
3.189,476
3.19,476
3.191,477
3.192,481
3.193,482
3.194,483
3.195,485
3.196,481
3.197,480
3.198,484
3.199,489
3.2,491
3.201,483
3.202,476
3.203,472
3.204,466
3.205,467
3.206,476
3.207,475
3.208,477
3.209,483
3.21,479
3.211,464
3.212,454
3.213,451
3.214,449
3.215,448
3.216,448
3.217,452
3.218,457
3.219,464
3.22,469
3.221,471
3.222,473
3.223,473
3.224,473
3.225,473
3.226,468
3.227,466
3.228,468
3.229,471
3.23,472
3.231,469
3.232,467
3.233,468
3.234,470
3.235,473
3.236,464
3.237,463
3.238,479
3.239,488
3.24,502
3.241,505
3.242,501
3.243,497
3.244,479
3.245,458
3.246,439
3.247,432
3.248,447
3.249,459
3.25,469
3.251,471
3.252,471
3.253,473
3.254,478
3.255,480
3.256,480
3.257,480
3.258,478
3.259,478
3.26,480
3.261,481
3.262,484
3.263,485
3.264,488
3.265,489
3.266,491
3.267,484
3.268,479
3.269,479
3.27,482
3.271,479
3.272,479
3.273,484
3.274,491
3.275,488
3.276,478
3.277,479
3.278,478
3.279,481
3.28,485
3.281,484
3.282,486
3.283,484
3.284,484
3.285,484
3.286,484
3.287,483
3.288,484
3.289,486
3.29,488
3.291,488
3.292,484
3.293,483
3.294,484
3.295,487
3.296,488
3.297,490
3.298,490
3.299,486
3.3,482
3.301,483
3.302,484
3.303,485
3.304,488
3.305,487
3.306,489
3.307,496
3.308,499
3.309,502
3.31,507
3.311,501
3.312,496
3.313,494
3.314,494
3.315,499
3.316,501
3.317,495
3.318,479
3.319,469
3.32,478
3.321,485
3.322,490
3.323,494
3.324,493
3.325,491
3.326,494
3.327,497
3.328,500
3.329,501
3.33,499
3.331,496
3.332,497
3.333,495
3.334,496
3.335,499
3.336,497
3.337,499
3.338,502
3.339,497
3.34,487
3.341,486
3.342,489
3.343,488
3.344,493
3.345,502
3.346,505
3.347,506
3.348,506
3.349,507
3.35,507
3.351,508
3.352,512
3.353,512
3.354,510
3.355,504
3.356,496
3.357,492
3.358,487
3.359,486
3.36,483
3.361,483
3.362,486
3.363,492
3.364,496
3.365,502
3.366,505
3.367,505
3.368,505
3.369,505
3.37,504
3.371,504
3.372,509
3.373,512
3.374,514
3.375,515
3.376,518
3.377,518
3.378,518
3.379,518
3.38,518
3.381,519
3.382,518
3.383,519
3.384,519
3.385,521
3.386,524
3.387,525
3.388,519
3.389,513
3.39,518
3.391,524
3.392,527
3.393,527
3.394,522
3.395,515
3.396,512
3.397,508
3.398,504
3.399,500
3.4,499
3.401,496
3.402,499
3.403,499
3.404,502
3.405,504
3.406,504
3.407,503
3.408,504
3.409,504
3.41,503
3.411,502
3.412,500
3.413,496
3.414,491
3.415,490
3.416,492
3.417,493
3.418,496
3.419,496
3.42,498
3.421,505
3.422,513
3.423,510
3.424,500
3.425,492
3.426,485
3.427,474
3.428,475
3.429,481
3.43,477
3.431,475
3.432,476
3.433,475
3.434,476
3.435,481
3.436,482
3.437,487
3.438,493
3.439,495
3.44,495
3.441,496
3.442,499
3.443,502
3.444,501
3.445,500
3.446,502
3.447,503
3.448,500
3.449,502
3.45,499
3.451,494
3.452,493
3.453,495
3.454,496
3.455,497
3.456,498
3.457,498
3.458,499
3.459,501
3.46,503
3.461,504
3.462,504
3.463,504
3.464,504
3.465,505
3.466,508
3.467,506
3.468,501
3.469,497
3.47,497
3.471,495
3.472,492
3.473,488
3.474,487
3.475,491
3.476,495
3.477,500
3.478,500
3.479,499
3.48,500
3.481,504
3.482,508
3.483,510
3.484,510
3.485,509
3.486,507
3.487,508
3.488,515
3.489,518
3.49,519
3.491,520
3.492,523
3.493,530
3.494,539
3.495,548
3.496,559
3.497,574
3.498,589
3.499,603
3.5,618
3.501,633
3.502,650
3.503,667
3.504,677
3.505,687
3.506,699
3.507,713
3.508,726
3.509,736
3.51,743
3.511,750
3.512,752
3.513,748
3.514,741
3.515,731
3.516,716
3.517,700
3.518,679
3.519,656
3.52,630
3.521,596
3.522,560
3.523,523
3.524,487
3.525,451
3.526,415
3.527,388
3.528,368
3.529,353
3.53,345
3.531,341
3.532,341
3.533,342
3.534,341
3.535,340
3.536,342
3.537,344
3.538,345
3.539,346
3.54,347
3.541,352
3.542,359
3.543,371
3.544,382
3.545,388
3.546,398
3.547,408
3.548,408
3.549,411
3.55,417
3.551,425
3.552,435
3.553,444
3.554,448
3.555,451
3.556,460
3.557,466
3.558,473
3.559,484
3.56,490
3.561,492
3.562,493
3.563,498
3.564,493
3.565,481
3.566,484
3.567,488
3.568,482
3.569,479
3.57,480
3.571,484
3.572,488
3.573,493
3.574,498
3.575,501
3.576,500
3.577,503
3.578,510
3.579,512
3.58,510
3.581,512
3.582,512
3.583,509
3.584,507
3.585,507
3.586,508
3.587,511
3.588,514
3.589,514
3.59,515
3.591,514
3.592,517
3.593,514
3.594,512
3.595,512
3.596,516
3.597,520
3.598,518
3.599,512
3.6,513
3.601,513
3.602,511
3.603,511
3.604,510
3.605,509
3.606,511
3.607,510
3.608,508
3.609,507
3.61,509
3.611,512
3.612,515
3.613,517
3.614,519
3.615,520
3.616,523
3.617,527
3.618,531
3.619,530
3.62,526
3.621,524
3.622,523
3.623,524
3.624,520
3.625,520
3.626,521
3.627,513
3.628,510
3.629,510
3.63,508
3.631,509
3.632,513
3.633,518
3.634,517
3.635,516
3.636,518
3.637,522
3.638,523
3.639,524
3.64,524
3.641,525
3.642,526
3.643,524
3.644,527
3.645,537
3.646,539
3.647,540
3.648,535
3.649,528
3.65,520
3.651,514
3.652,513
3.653,519
3.654,521
3.655,522
3.656,520
3.657,519
3.658,520
3.659,519
3.66,519
3.661,515
3.662,515
3.663,520
3.664,523
3.665,524
3.666,524
3.667,528
3.668,534
3.669,534
3.67,531
3.671,533
3.672,538
3.673,538
3.674,535
3.675,534
3.676,532
3.677,529
3.678,531
3.679,537
3.68,538
3.681,535
3.682,537
3.683,537
3.684,536
3.685,536
3.686,536
3.687,539
3.688,542
3.689,544
3.69,545
3.691,543
3.692,544
3.693,546
3.694,545
3.695,547
3.696,548
3.697,550
3.698,552
3.699,556
3.7,559
3.701,559
3.702,555
3.703,555
3.704,559
3.705,565
3.706,566
3.707,569
3.708,579
3.709,586
3.71,575
3.711,562
3.712,557
3.713,558
3.714,560
3.715,558
3.716,556
3.717,557
3.718,561
3.719,566
3.72,566
3.721,564
3.722,562
3.723,564
3.724,564
3.725,562
3.726,561
3.727,562
3.728,562
3.729,561
3.73,562
3.731,560
3.732,556
3.733,555
3.734,551
3.735,550
3.736,553
3.737,558
3.738,559
3.739,561
3.74,560
3.741,555
3.742,547
3.743,540
3.744,529
3.745,519
3.746,519
3.747,522
3.748,524
3.749,526
3.75,526
3.751,524
3.752,523
3.753,520
3.754,520
3.755,521
3.756,519
3.757,516
3.758,515
3.759,511
3.76,513
3.761,510
3.762,508
3.763,507
3.764,507
3.765,506
3.766,502
3.767,499
3.768,497
3.769,496
3.77,496
3.771,496
3.772,498
3.773,498
3.774,493
3.775,491
3.776,486
3.777,484
3.778,483
3.779,483
3.78,484
3.781,482
3.782,481
3.783,478
3.784,476
3.785,473
3.786,471
3.787,472
3.788,473
3.789,479
3.79,484
3.791,489
3.792,492
3.793,492
3.794,493
3.795,483
3.796,473
3.797,472
3.798,470
3.799,472
3.8,478
3.801,479
3.802,481
3.803,480
3.804,473
3.805,473
3.806,471
3.807,470
3.808,474
3.809,474
3.81,473
3.811,475
3.812,481
3.813,482
3.814,483
3.815,481
3.816,479
3.817,479
3.818,482
3.819,482
3.82,482
3.821,481
3.822,481
3.823,479
3.824,478
3.825,477
3.826,478
3.827,482
3.828,483
3.829,481
3.83,479
3.831,480
3.832,482
3.833,483
3.834,486
3.835,488
3.836,487
3.837,488
3.838,487
3.839,484
3.84,483
3.841,479
3.842,476
3.843,478
3.844,483
3.845,491
3.846,493
3.847,496
3.848,503
3.849,504
3.85,503
3.851,503
3.852,506
3.853,505
3.854,501
3.855,494
3.856,489
3.857,488
3.858,484
3.859,485
3.86,484
3.861,485
3.862,487
3.863,485
3.864,485
3.865,485
3.866,489
3.867,491
3.868,492
3.869,494
3.87,492
3.871,489
3.872,488
3.873,489
3.874,490
3.875,492
3.876,493
3.877,495
3.878,495
3.879,496
3.88,495
3.881,493
3.882,493
3.883,494
3.884,493
3.885,492
3.886,490
3.887,488
3.888,488
3.889,488
3.89,487
3.891,487
3.892,488
3.893,493
3.894,499
3.895,499
3.896,497
3.897,503
3.898,509
3.899,516
3.9,519
3.901,519
3.902,513
3.903,509
3.904,507
3.905,511
3.906,512
3.907,507
3.908,498
3.909,492
3.91,491
3.911,489
3.912,488
3.913,492
3.914,492
3.915,494
3.916,499
3.917,504
3.918,502
3.919,498
3.92,495
3.921,493
3.922,491
3.923,492
3.924,495
3.925,499
3.926,500
3.927,502
3.928,503
3.929,504
3.93,505
3.931,507
3.932,508
3.933,506
3.934,507
3.935,509
3.936,508
3.937,507
3.938,503
3.939,499
3.94,500
3.941,503
3.942,502
3.943,500
3.944,497
3.945,495
3.946,497
3.947,497
3.948,496
3.949,500
3.95,503
3.951,501
3.952,496
3.953,497
3.954,501
3.955,505
3.956,511
3.957,520
3.958,519
3.959,515
3.96,513
3.961,506
3.962,507
3.963,507
3.964,512
3.965,514
3.966,512
3.967,507
3.968,505
3.969,507
3.97,510
3.971,512
3.972,512
3.973,514
3.974,514
3.975,515
3.976,513
3.977,511
3.978,513
3.979,515
3.98,517
3.981,519
3.982,519
3.983,519
3.984,519
3.985,522
3.986,527
3.987,526
3.988,521
3.989,523
3.99,528
3.991,529
3.992,527
3.993,525
3.994,522
3.995,521
3.996,519
3.997,521
3.998,521
3.999,519
4.0,519
4.001,518
4.002,517
4.003,516
4.004,515
4.005,513
4.006,512
4.007,511
4.008,504
4.009,502
4.01,503
4.011,504
4.012,504
4.013,509
4.014,515
4.015,518
4.016,519
4.017,508
4.018,501
4.019,499
4.02,502
4.021,497
4.022,491
4.023,487
4.024,480
4.025,481
4.026,484
4.027,488
4.028,490
4.029,491
4.03,493
4.031,492
4.032,492
4.033,489
4.034,484
4.035,486
4.036,490
4.037,493
4.038,492
4.039,493
4.04,492
4.041,492
4.042,492
4.043,492
4.044,492
4.045,493
4.046,495
4.047,496
4.048,497
4.049,496
4.05,496
4.051,494
4.052,493
4.053,495
4.054,499
4.055,500
4.056,498
4.057,499
4.058,502
4.059,497
4.06,493
4.061,494
4.062,498
4.063,500
4.064,501
4.065,503
4.066,507
4.067,509
4.068,512
4.069,512
4.07,511
4.071,505
4.072,502
4.073,497
4.074,494
4.075,493
4.076,492
4.077,495
4.078,496
4.079,497
4.08,496
4.081,495
4.082,498
4.083,498
4.084,496
4.085,497
4.086,499
4.087,499
4.088,498
4.089,494
4.09,493
4.091,495
4.092,496
4.093,497
4.094,498
4.095,499
4.096,509
4.097,518
4.098,531
4.099,547
4.1,561
4.101,574
4.102,586
4.103,601
4.104,615
4.105,634
4.106,650
4.107,663
4.108,679
4.109,699
4.11,722
4.111,742
4.112,759
4.113,773
4.114,781
4.115,790
4.116,796
4.117,784
4.118,774
4.119,766
4.12,754
4.121,730
4.122,705
4.123,674
4.124,645
4.125,611
4.126,572
4.127,537
4.128,500
4.129,462
4.13,423
4.131,391
4.132,371
4.133,355
4.134,339
4.135,327
4.136,321
4.137,318
4.138,318
4.139,316
4.14,317
4.141,318
4.142,320
4.143,319
4.144,319
4.145,320
4.146,329
4.147,339
4.148,344
4.149,354
4.15,364
4.151,376
4.152,382
4.153,386
4.154,390
4.155,401
4.156,411
4.157,417
4.158,422
4.159,423
4.16,428
4.161,433
4.162,440
4.163,449
4.164,454
4.165,455
4.166,455
4.167,457
4.168,462
4.169,476
4.17,491
4.171,501
4.172,516
4.173,513
4.174,505
4.175,500
4.176,494
4.177,485
4.178,482
4.179,493
4.18,508
4.181,519
4.182,523
4.183,522
4.184,518
4.185,514
4.186,512
4.187,513
4.188,514
4.189,510
4.19,508
4.191,507
4.192,506
4.193,505
4.194,503
4.195,505
4.196,511
4.197,519
4.198,523
4.199,521
4.2,517
4.201,512
4.202,510
4.203,510
4.204,506
4.205,503
4.206,503
4.207,504
4.208,504
4.209,507
4.21,509
4.211,511
4.212,513
4.213,512
4.214,505
4.215,504
4.216,504
4.217,504
4.218,509
4.219,513
4.22,518
4.221,517
4.222,512
4.223,507
4.224,501
4.225,501
4.226,502
4.227,504
4.228,506
4.229,507
4.23,513
4.231,516
4.232,509
4.233,498
4.234,488
4.235,482
4.236,480
4.237,481
4.238,486
4.239,492
4.24,496
4.241,502
4.242,506
4.243,510
4.244,518
4.245,525
4.246,531
4.247,536
4.248,541
4.249,546
4.25,542
4.251,539
4.252,539
4.253,538
4.254,535
4.255,534
4.256,534
4.257,536
4.258,540
4.259,540
4.26,542
4.261,537
4.262,534
4.263,532
4.264,536
4.265,539
4.266,544
4.267,545
4.268,542
4.269,540
4.27,535
4.271,529
4.272,527
4.273,535
4.274,540
4.275,539
4.276,541
4.277,543
4.278,540
4.279,534
4.28,533
4.281,534
4.282,536
4.283,536
4.284,532
4.285,532
4.286,531
4.287,534
4.288,536
4.289,537
4.29,538
4.291,533
4.292,530
4.293,531
4.294,535
4.295,537
4.296,540
4.297,543
4.298,546
4.299,549
4.3,548
4.301,547
4.302,549
4.303,546
4.304,542
4.305,543
4.306,544
4.307,547
4.308,552
4.309,555
4.31,554
4.311,553
4.312,558
4.313,560
4.314,564
4.315,564
4.316,560
4.317,560
4.318,559
4.319,559
4.32,559
4.321,557
4.322,553
4.323,551
4.324,549
4.325,547
4.326,547
4.327,551
4.328,555
4.329,557
4.33,556
4.331,561
4.332,569
4.333,567
4.334,563
4.335,553
4.336,548
4.337,547
4.338,547
4.339,545
4.34,544
4.341,541
4.342,541
4.343,538
4.344,533
4.345,530
4.346,531
4.347,532
4.348,533
4.349,529
4.35,529
4.351,527
4.352,525
4.353,522
4.354,518
4.355,518
4.356,515
4.357,511
4.358,507
4.359,511
4.36,522
4.361,527
4.362,524
4.363,513
4.364,504
4.365,503
4.366,498
4.367,492
4.368,484
4.369,479
4.37,476
4.371,473
4.372,474
4.373,481
4.374,489
4.375,493
4.376,505
4.377,513
4.378,510
4.379,501
4.38,491
4.381,484
4.382,486
4.383,487
4.384,484
4.385,481
4.386,477
4.387,476
4.388,476
4.389,479
4.39,477
4.391,473
4.392,472
4.393,470
4.394,465
4.395,461
4.396,465
4.397,466
4.398,462
4.399,456
4.4,456
4.401,460
4.402,463
4.403,470
4.404,478
4.405,486
4.406,495
4.407,501
4.408,499
4.409,501
4.41,498
4.411,488
4.412,480
4.413,470
4.414,464
4.415,459
4.416,460
4.417,467
4.418,474
4.419,477
4.42,477
4.421,480
4.422,478
4.423,476
4.424,478
4.425,481
4.426,486
4.427,484
4.428,480
4.429,473
4.43,472
4.431,472
4.432,467
4.433,460
4.434,460
4.435,475
4.436,488
4.437,493
4.438,491
4.439,487
4.44,486
4.441,484
4.442,480
4.443,475
4.444,475
4.445,480
4.446,487
4.447,487
4.448,488
4.449,487
4.45,486
4.451,484
4.452,487
4.453,487
4.454,482
4.455,479
4.456,475
4.457,473
4.458,474
4.459,479
4.46,489
4.461,491
4.462,487
4.463,488
4.464,483
4.465,480
4.466,479
4.467,479
4.468,478
4.469,474
4.47,475
4.471,478
4.472,478
4.473,480
4.474,488
4.475,499
4.476,503
4.477,499
4.478,494
4.479,490
4.48,488
4.481,487
4.482,487
4.483,487
4.484,490
4.485,491
4.486,492
4.487,494
4.488,492
4.489,494
4.49,499
4.491,494
4.492,482
4.493,472
4.494,472
4.495,477
4.496,481
4.497,481
4.498,479
4.499,476
4.5,478
4.501,488
4.502,490
4.503,485
4.504,482
4.505,484
4.506,485
4.507,484
4.508,488
4.509,491
4.51,492
4.511,492
4.512,495
4.513,504
4.514,506
4.515,504
4.516,499
4.517,497
4.518,495
4.519,489
4.52,489
4.521,493
4.522,493
4.523,487
4.524,491
4.525,496
4.526,492
4.527,496
4.528,496
4.529,487
4.53,483
4.531,479
4.532,479
4.533,483
4.534,487
4.535,484
4.536,481
4.537,489
4.538,492
4.539,486
4.54,479
4.541,477
4.542,478
4.543,475
4.544,478
4.545,481
4.546,487
4.547,487
4.548,487
4.549,493
4.55,503
4.551,513
4.552,522
4.553,530
4.554,538
4.555,542
4.556,542
4.557,540
4.558,539
4.559,534
4.56,520
4.561,502
4.562,491
4.563,490
4.564,492
4.565,491
4.566,491
4.567,493
4.568,496
4.569,503
4.57,508
4.571,508
4.572,512
4.573,515
4.574,516
4.575,511
4.576,502
4.577,496
4.578,500
4.579,506
4.58,504
4.581,500
4.582,493
4.583,489
4.584,491
4.585,498
4.586,501
4.587,501
4.588,502
4.589,495
4.59,487
4.591,484
4.592,483
4.593,494
4.594,502
4.595,510
4.596,510
4.597,511
4.598,510
4.599,504
4.6,497
4.601,492
4.602,489
4.603,488
4.604,484
4.605,481
4.606,476
4.607,472
4.608,473
4.609,476
4.61,480
4.611,476
4.612,472
4.613,482
4.614,503
4.615,519
4.616,525
4.617,525
4.618,527
4.619,527
4.62,528
4.621,531
4.622,536
4.623,532
4.624,531
4.625,527
4.626,524
4.627,519
4.628,516
4.629,518
4.63,530
4.631,540
4.632,554
4.633,568
4.634,575
4.635,580
4.636,578
4.637,573
4.638,564
4.639,556
4.64,553
4.641,552
4.642,552
4.643,551
4.644,550
4.645,552
4.646,551
4.647,553
4.648,556
4.649,560
4.65,562
4.651,558
4.652,559
4.653,553
4.654,545
4.655,535
4.656,526
4.657,511
4.658,496
4.659,491
4.66,492
4.661,491
4.662,486
4.663,487
4.664,485
4.665,479
4.666,474
4.667,477
4.668,471
4.669,467
4.67,468
4.671,474
4.672,480
4.673,488
4.674,489
4.675,493
4.676,492
4.677,493
4.678,496
4.679,496
4.68,492
4.681,493
4.682,505
4.683,508
4.684,506
4.685,507
4.686,507
4.687,511
4.688,510
4.689,509
4.69,507
4.691,505
4.692,506
4.693,506
4.694,506
4.695,506
4.696,504
4.697,495
4.698,483
4.699,478
4.7,478
4.701,483
4.702,489
4.703,493
4.704,496
4.705,496
4.706,494
4.707,494
4.708,494
4.709,489
4.71,489
4.711,491
4.712,491
4.713,489
4.714,492
4.715,493
4.716,494
4.717,492
4.718,492
4.719,487
4.72,483
4.721,484
4.722,490
4.723,502
4.724,504
4.725,505
4.726,510
4.727,511
4.728,503
4.729,493
4.73,485
4.731,489
4.732,488
4.733,488
4.734,492
4.735,495
4.736,499
4.737,501
4.738,505
4.739,509
4.74,513
4.741,523
4.742,544
4.743,560
4.744,573
4.745,583
4.746,600
4.747,619
4.748,633
4.749,645
4.75,659
4.751,678
4.752,696
4.753,714
4.754,732
4.755,750
4.756,766
4.757,782
4.758,793
4.759,804
4.76,814
4.761,813
4.762,809
4.763,800
4.764,779
4.765,755
4.766,727
4.767,692
4.768,656
4.769,616
4.77,569
4.771,519
4.772,472
4.773,424
4.774,376
4.775,338
4.776,308
4.777,280
4.778,263
4.779,248
4.78,239
4.781,237
4.782,238
4.783,242
4.784,245
4.785,249
4.786,254
4.787,263
4.788,271
4.789,275
4.79,285
4.791,298
4.792,314
4.793,328
4.794,336
4.795,344
4.796,350
4.797,359
4.798,376
4.799,393
4.8,400
4.801,405
4.802,414
4.803,424
4.804,428
4.805,430
4.806,435
4.807,440
4.808,450
4.809,464
4.81,470
4.811,468
4.812,466
4.813,465
4.814,469
4.815,475
4.816,481
4.817,487
4.818,488
4.819,489
4.82,496
4.821,503
4.822,506
4.823,512
4.824,519
4.825,533
4.826,540
4.827,539
4.828,539
4.829,536
4.83,533
4.831,535
4.832,537
4.833,535
4.834,529
4.835,527
4.836,528
4.837,533
4.838,535
4.839,532
4.84,528
4.841,523
4.842,524
4.843,530
4.844,532
4.845,533
4.846,534
4.847,534
4.848,539
4.849,543
4.85,548
4.851,549
4.852,546
4.853,547
4.854,553
4.855,553
4.856,550
4.857,545
4.858,536
4.859,533
4.86,533
4.861,538
4.862,539
4.863,531
4.864,525
4.865,517
4.866,516
4.867,515
4.868,518
4.869,522
4.87,522
4.871,522
4.872,519
4.873,513
4.874,511
4.875,508
4.876,509
4.877,509
4.878,507
4.879,504
4.88,503
4.881,501
4.882,492
4.883,486
4.884,490
4.885,502
4.886,513
4.887,522
4.888,520
4.889,521
4.89,521
4.891,521
4.892,527
4.893,533
4.894,544
4.895,551
4.896,547
4.897,547
4.898,552
4.899,556
4.9,559
4.901,563
4.902,561
4.903,563
4.904,568
4.905,573
4.906,573
4.907,570
4.908,571
4.909,574
4.91,579
4.911,580
4.912,578
4.913,581
4.914,583
4.915,586
4.916,588
4.917,588
4.918,586
4.919,578
4.92,575
4.921,570
4.922,566
4.923,560
4.924,551
4.925,543
4.926,535
4.927,529
4.928,525
4.929,515
4.93,513
4.931,516
4.932,519
4.933,519
4.934,522
4.935,527
4.936,530
4.937,536
4.938,540
4.939,543
4.94,547
4.941,555
4.942,569
4.943,583
4.944,593
4.945,601
4.946,609
4.947,616
4.948,619
4.949,622
4.95,623
4.951,620
4.952,612
4.953,598
4.954,582
4.955,572
4.956,565
4.957,565
4.958,558
4.959,543
4.96,533
4.961,537
4.962,549
4.963,555
4.964,556
4.965,564
4.966,572
4.967,581
4.968,586
4.969,589
4.97,590
4.971,582
4.972,569
4.973,549
4.974,545
4.975,546
4.976,543
4.977,547
4.978,551
4.979,551
4.98,543
4.981,527
4.982,526
4.983,526
4.984,519
4.985,503
4.986,498
4.987,513
4.988,534
4.989,553
4.99,560
4.991,556
4.992,551
4.993,545
4.994,541
4.995,547
4.996,547
4.997,545
4.998,535
4.999,524
5.0,514
5.001,510
5.002,511
5.003,514
5.004,521
5.005,526
5.006,522
5.007,522
5.008,522
5.009,526
5.01,526
5.011,518
5.012,504
5.013,495
5.014,489
5.015,482
5.016,480
5.017,484
5.018,491
5.019,490
5.02,482
5.021,468
5.022,449
5.023,425
5.024,411
5.025,405
5.026,404
5.027,408
5.028,415
5.029,435
5.03,464
5.031,487
5.032,500
5.033,501
5.034,498
5.035,497
5.036,495
5.037,492
5.038,491
5.039,483
5.04,478
5.041,474
5.042,472
5.043,475
5.044,475
5.045,474
5.046,480
5.047,480
5.048,476
5.049,471
5.05,464
5.051,460
5.052,458
5.053,459
5.054,455
5.055,454
5.056,455
5.057,456
5.058,451
5.059,444
5.06,454
5.061,472
5.062,489
5.063,497
5.064,499
5.065,501
5.066,502
5.067,499
5.068,500
5.069,507
5.07,511
5.071,515
5.072,518
5.073,514
5.074,512
5.075,501
5.076,497
5.077,490
5.078,484
5.079,479
5.08,468
5.081,464
5.082,463
5.083,467
5.084,473
5.085,469
5.086,467
5.087,465
5.088,467
5.089,469
5.09,467
5.091,468
5.092,480
5.093,489
5.094,497
5.095,508
5.096,515
5.097,517
5.098,514
5.099,510
5.1,509
5.101,511
5.102,511
5.103,516
5.104,522
5.105,526
5.106,524
5.107,522
5.108,527
5.109,526
5.11,524
5.111,516
5.112,501
5.113,482
5.114,472
5.115,464
5.116,470
5.117,470
5.118,466
5.119,464
5.12,463
5.121,469
5.122,481
5.123,500
5.124,515
5.125,512
5.126,508
5.127,505
5.128,497
5.129,484
5.13,473
5.131,465
5.132,459
5.133,468
5.134,483
5.135,494
5.136,496
5.137,498
5.138,509
5.139,518
5.14,521
5.141,517
5.142,508
5.143,499
5.144,495
5.145,495
5.146,504
5.147,516
5.148,528
5.149,539
5.15,543
5.151,544
5.152,539
5.153,528
5.154,525
5.155,523
5.156,529
5.157,535
5.158,544
5.159,552
5.16,553
5.161,545
5.162,544
5.163,543
5.164,541
5.165,538
5.166,534
5.167,528
5.168,521
5.169,515
5.17,504
5.171,496
5.172,496
5.173,501
5.174,509
5.175,516
5.176,524
5.177,527
5.178,527
5.179,527
5.18,532
5.181,542
5.182,552
5.183,557
5.184,555
5.185,542
5.186,526
5.187,508
5.188,497
5.189,490
5.19,483
5.191,481
5.192,487
5.193,491
5.194,493
5.195,499
5.196,502
5.197,503
5.198,511
5.199,518
5.2,516
5.201,513
5.202,510
5.203,509
5.204,515
5.205,519
5.206,513
5.207,509
5.208,507
5.209,505
5.21,514
5.211,524
5.212,530
5.213,536
5.214,532
5.215,520
5.216,518
5.217,528
5.218,537
5.219,545
5.22,543
5.221,535
5.222,541
5.223,548
5.224,546
5.225,547
5.226,545
5.227,543
5.228,536
5.229,525
5.23,521
5.231,520
5.232,513
5.233,508
5.234,506
5.235,504
5.236,496
5.237,494
5.238,495
5.239,496
5.24,500
5.241,504
5.242,495
5.243,486
5.244,480
5.245,487
5.246,503
5.247,515
5.248,523
5.249,519
5.25,516
5.251,512
5.252,508
5.253,507
5.254,511
5.255,508
5.256,498
5.257,493
5.258,498
5.259,512
5.26,526
5.261,537
5.262,540
5.263,539
5.264,537
5.265,538
5.266,538
5.267,536
5.268,536
5.269,539
5.27,543
5.271,546
5.272,548
5.273,551
5.274,550
5.275,550
5.276,548
5.277,542
5.278,534
5.279,537
5.28,538
5.281,532
5.282,530
5.283,533
5.284,531
5.285,526
5.286,524
5.287,518
5.288,519
5.289,518
5.29,513
5.291,508
5.292,506
5.293,508
5.294,515
5.295,519
5.296,518
5.297,518
5.298,512
5.299,511
5.3,510
5.301,506
5.302,499
5.303,493
5.304,485
5.305,481
5.306,477
5.307,476
5.308,481
5.309,486
5.31,488
5.311,490
5.312,493
5.313,499
5.314,502
5.315,502
5.316,498
5.317,500
5.318,500
5.319,493
5.32,487
5.321,494
5.322,501
5.323,499
5.324,492
5.325,498
5.326,500
5.327,495
5.328,495
5.329,502
5.33,503
5.331,499
5.332,492
5.333,487
5.334,487
5.335,483
5.336,480
5.337,493
5.338,512
5.339,530
5.34,544
5.341,553
5.342,558
5.343,549
5.344,542
5.345,537
5.346,534
5.347,527
5.348,522
5.349,521
5.35,523
5.351,522
5.352,518
5.353,516
5.354,517
5.355,513
5.356,512
5.357,510
5.358,512
5.359,513
5.36,515
5.361,518
5.362,517
5.363,513
5.364,510
5.365,516
5.366,522
5.367,526
5.368,521
5.369,513
5.37,513
5.371,514
5.372,513
5.373,511
5.374,508
5.375,498
5.376,491
5.377,497
5.378,501
5.379,501
5.38,498
5.381,498
5.382,501
5.383,511
5.384,527
5.385,542
5.386,556
5.387,571
5.388,583
5.389,593
5.39,609
5.391,626
5.392,643
5.393,661
5.394,678
5.395,692
5.396,703
5.397,711
5.398,731
5.399,750
5.4,760
5.401,767
5.402,761
5.403,752
5.404,739
5.405,728
5.406,726
5.407,723
5.408,713
5.409,702
5.41,683
5.411,655
5.412,616
5.413,566
5.414,523
5.415,476
5.416,428
5.417,383
5.418,343
5.419,308
5.42,282
5.421,267
5.422,257
5.423,243
5.424,229
5.425,222
5.426,220
5.427,221
5.428,222
5.429,224
5.43,229
5.431,236
5.432,246
5.433,258
5.434,271
5.435,292
5.436,310
5.437,323
5.438,340
5.439,352
5.44,366
5.441,383
5.442,397
5.443,412
5.444,425
5.445,437
5.446,447
5.447,453
5.448,465
5.449,472
5.45,487
5.451,497
5.452,504
5.453,506
5.454,504
5.455,499
5.456,493
5.457,489
5.458,484
5.459,487
5.46,497
5.461,505
5.462,510
5.463,511
5.464,516
5.465,513
5.466,511
5.467,508
5.468,508
5.469,512
5.47,515
5.471,510
5.472,506
5.473,507
5.474,509
5.475,513
5.476,515
5.477,519
5.478,523
5.479,524
5.48,523
5.481,521
5.482,518
5.483,514
5.484,512
5.485,512
5.486,519
5.487,521
5.488,524
5.489,525
5.49,528
5.491,530
5.492,531
5.493,531
5.494,526
5.495,517
5.496,512
5.497,514
5.498,524
5.499,527
5.5,527
5.501,529
5.502,528
5.503,525
5.504,531
5.505,532
5.506,529
5.507,526
5.508,523
5.509,523
5.51,524
5.511,525
5.512,528
5.513,527
5.514,523
5.515,521
5.516,518
5.517,518
5.518,521
5.519,524
5.52,530
5.521,533
5.522,536
5.523,539
5.524,541
5.525,540
5.526,535
5.527,536
5.528,542
5.529,554
5.53,563
5.531,570
5.532,571
5.533,564
5.534,546
5.535,534
5.536,530
5.537,531
5.538,534
5.539,532
5.54,535
5.541,543
5.542,543
5.543,540
5.544,536
5.545,529
5.546,523
5.547,530
5.548,540
5.549,548
5.55,555
5.551,560
5.552,559
5.553,550
5.554,546
5.555,546
5.556,543
5.557,538
5.558,531
5.559,524
5.56,523
5.561,525
5.562,537
5.563,544
5.564,545
5.565,551
5.566,561
5.567,564
5.568,562
5.569,562
5.57,562
5.571,563
5.572,572
5.573,581
5.574,587
5.575,587
5.576,585
5.577,582
5.578,578
5.579,572
5.58,571
5.581,570
5.582,568
5.583,570
5.584,571
5.585,563
5.586,564
5.587,573
5.588,582
5.589,587
5.59,585
5.591,581
5.592,581
5.593,583
5.594,584
5.595,585
5.596,585
5.597,586
5.598,585
5.599,582
5.6,582
5.601,580
5.602,583
5.603,581
5.604,579
5.605,580
5.606,584
5.607,586
5.608,590
5.609,592
5.61,593
5.611,596
5.612,597
5.613,600
5.614,606
5.615,600
5.616,586
5.617,578
5.618,572
5.619,564
5.62,562
5.621,563
5.622,566
5.623,568
5.624,572
5.625,575
5.626,576
5.627,572
5.628,565
5.629,562
5.63,554
5.631,549
5.632,548
5.633,544
5.634,539
5.635,539
5.636,542
5.637,546
5.638,548
5.639,548
5.64,548
5.641,544
5.642,540
5.643,529
5.644,528
5.645,528
5.646,523
5.647,514
5.648,504
5.649,499
5.65,495
5.651,496
5.652,493
5.653,486
5.654,481
5.655,482
5.656,483
5.657,483
5.658,486
5.659,493
5.66,499
5.661,496
5.662,483
5.663,468
5.664,463
5.665,463
5.666,461
5.667,462
5.668,469
5.669,475
5.67,480
5.671,485
5.672,483
5.673,478
5.674,479
5.675,476
5.676,468
5.677,465
5.678,464
5.679,465
5.68,467
5.681,465
5.682,463
5.683,464
5.684,466
5.685,464
5.686,464
5.687,460
5.688,455
5.689,447
5.69,434
5.691,430
5.692,433
5.693,435
5.694,439
5.695,445
5.696,454
5.697,460
5.698,461
5.699,463
5.7,469
5.701,475
5.702,472
5.703,467
5.704,460
5.705,453
5.706,449
5.707,446
5.708,446
5.709,449
5.71,452
5.711,453
5.712,455
5.713,457
5.714,455
5.715,457
5.716,460
5.717,461
5.718,465
5.719,472
5.72,471
5.721,471
5.722,468
5.723,470
5.724,470
5.725,472
5.726,476
5.727,477
5.728,471
5.729,466
5.73,468
5.731,475
5.732,480
5.733,477
5.734,472
5.735,464
5.736,455
5.737,455
5.738,457
5.739,461
5.74,467
5.741,470
5.742,471
5.743,482
5.744,495
5.745,497
5.746,491
5.747,490
5.748,491
5.749,491
5.75,490
5.751,487
5.752,487
5.753,484
5.754,478
5.755,470
5.756,470
5.757,476
5.758,476
5.759,470
5.76,465
5.761,466
5.762,476
5.763,489
5.764,497
5.765,505
5.766,509
5.767,510
5.768,513
5.769,510
5.77,508
5.771,499
5.772,489
5.773,481
5.774,480
5.775,484
5.776,489
5.777,489
5.778,486
5.779,492
5.78,494
5.781,490
5.782,488
5.783,487
5.784,487
5.785,483
5.786,478
5.787,483
5.788,489
5.789,487
5.79,491
5.791,493
5.792,494
5.793,495
5.794,496
5.795,493
5.796,492
5.797,492
5.798,493
5.799,495
5.8,493
5.801,486
5.802,486
5.803,495
5.804,501
5.805,506
5.806,509
5.807,509
5.808,503
5.809,499
5.81,496
5.811,495
5.812,497
5.813,503
5.814,504
5.815,504
5.816,505
5.817,505
5.818,507
5.819,505
5.82,498
5.821,489
5.822,482
5.823,476
5.824,472
5.825,474
5.826,484
5.827,498
5.828,506
5.829,509
5.83,508
5.831,506
5.832,503
5.833,500
5.834,497
5.835,497
5.836,498
5.837,496
5.838,496
5.839,494
5.84,495
5.841,495
5.842,496
5.843,494
5.844,496
5.845,500
5.846,504
5.847,508
5.848,509
5.849,511
5.85,510
5.851,507
5.852,506
5.853,508
5.854,512
5.855,511
5.856,506
5.857,497
5.858,494
5.859,494
5.86,493
5.861,493
5.862,496
5.863,502
5.864,506
5.865,510
5.866,512
5.867,517
5.868,522
5.869,527
5.87,528
5.871,525
5.872,517
5.873,509
5.874,502
5.875,499
5.876,502
5.877,504
5.878,505
5.879,502
5.88,508
5.881,517
5.882,524
5.883,530
5.884,530
5.885,524
5.886,520
5.887,523
5.888,524
5.889,525
5.89,528
5.891,528
5.892,528
5.893,528
5.894,530
5.895,527
5.896,521
5.897,512
5.898,504
5.899,500
5.9,499
5.901,504
5.902,510
5.903,507
5.904,507
5.905,513
5.906,516
5.907,512
5.908,510
5.909,506
5.91,505
5.911,505
5.912,497
5.913,491
5.914,491
5.915,492
5.916,489
5.917,487
5.918,483
5.919,479
5.92,481
5.921,481
5.922,477
5.923,476
5.924,480
5.925,482
5.926,482
5.927,483
5.928,489
5.929,495
5.93,499
5.931,499
5.932,498
5.933,498
5.934,497
5.935,493
5.936,495
5.937,497
5.938,499
5.939,501
5.94,499
5.941,494
5.942,489
5.943,489
5.944,488
5.945,491
5.946,496
5.947,492
5.948,487
5.949,489
5.95,495
5.951,502
5.952,505
5.953,506
5.954,505
5.955,506
5.956,509
5.957,515
5.958,519
5.959,516
5.96,512
5.961,511
5.962,515
5.963,516
5.964,514
5.965,507
5.966,503
5.967,507
5.968,507
5.969,507
5.97,506
5.971,502
5.972,505
5.973,511
5.974,518
5.975,519
5.976,517
5.977,512
5.978,511
5.979,510
5.98,512
5.981,511
5.982,505
5.983,501
5.984,503
5.985,504
5.986,504
5.987,506
5.988,508
5.989,510
5.99,519
5.991,526
5.992,532
5.993,542
5.994,561
5.995,582
5.996,595
5.997,610
5.998,624
5.999,640
6.0,653
6.001,664
6.002,683
6.003,702
6.004,718
6.005,729
6.006,731
6.007,738
6.008,749
6.009,765
6.01,779
6.011,788
6.012,792
6.013,790
6.014,780
6.015,767
6.016,745
6.017,718
6.018,694
6.019,665
6.02,637
6.021,596
6.022,549
6.023,496
6.024,446
6.025,403
6.026,368
6.027,339
6.028,316
6.029,298
6.03,289
6.031,283
6.032,282
6.033,284
6.034,277
6.035,268
6.036,266
6.037,271
6.038,280
6.039,288
6.04,292
6.041,296
6.042,303
6.043,312
6.044,316
6.045,326
6.046,339
6.047,355
6.048,371
6.049,388
6.05,400
6.051,408
6.052,424
6.053,441
6.054,457
6.055,474
6.056,485
6.057,491
6.058,495
6.059,501
6.06,503
6.061,503
6.062,501
6.063,501
6.064,506
6.065,507
6.066,504
6.067,502
6.068,500
6.069,496
6.07,491
6.071,487
6.072,489
6.073,500
6.074,516
6.075,531
6.076,539
6.077,540
6.078,539
6.079,538
6.08,535
6.081,534
6.082,531
6.083,529
6.084,529
6.085,529
6.086,529
6.087,524
6.088,520
6.089,520
6.09,523
6.091,518
6.092,512
6.093,514
6.094,518
6.095,524
6.096,527
6.097,525
6.098,519
6.099,519
6.1,517
6.101,518
6.102,522
6.103,517
6.104,516
6.105,516
6.106,518
6.107,519
6.108,515
6.109,518
6.11,520
6.111,519
6.112,521
6.113,528
6.114,534
6.115,539
6.116,542
6.117,545
6.118,545
6.119,541
6.12,536
6.121,533
6.122,527
6.123,522
6.124,522
6.125,523
6.126,523
6.127,531
6.128,532
6.129,529
6.13,523
6.131,524
6.132,523
6.133,525
6.134,534
6.135,537
6.136,536
6.137,536
6.138,536
6.139,533
6.14,531
6.141,536
6.142,536
6.143,533
6.144,530
6.145,524
6.146,521
6.147,521
6.148,524
6.149,529
6.15,531
6.151,533
6.152,532
6.153,529
6.154,531
6.155,536
6.156,536
6.157,530
6.158,530
6.159,533
6.16,535
6.161,537
6.162,543
6.163,547
6.164,545
6.165,539
6.166,529
6.167,526
6.168,526
6.169,529
6.17,534
6.171,535
6.172,530
6.173,524
6.174,525
6.175,527
6.176,532
6.177,539
6.178,547
6.179,551
6.18,548
6.181,543
6.182,542
6.183,546
6.184,550
6.185,551
6.186,553
6.187,555
6.188,556
6.189,557
6.19,555
6.191,557
6.192,561
6.193,563
6.194,564
6.195,562
6.196,565
6.197,568
6.198,571
6.199,568
6.2,570
6.201,571
6.202,563
6.203,556
6.204,556
6.205,556
6.206,560
6.207,568
6.208,572
6.209,571
6.21,569
6.211,565
6.212,561
6.213,566
6.214,579
6.215,591
6.216,593
6.217,596
6.218,595
6.219,590
6.22,580
6.221,579
6.222,577
6.223,575
6.224,570
6.225,566
6.226,566
6.227,567
6.228,572
6.229,573
6.23,568
6.231,567
6.232,564
6.233,566
6.234,569
6.235,568
6.236,560
6.237,548
6.238,541
6.239,535
6.24,529
6.241,527
6.242,531
6.243,534
6.244,533
6.245,529
6.246,532
6.247,532
6.248,529
6.249,530
6.25,530
6.251,529
6.252,529
6.253,533
6.254,535
6.255,528
6.256,517
6.257,512
6.258,512
6.259,508
6.26,503
6.261,498
6.262,492
6.263,489
6.264,487
6.265,484
6.266,485
6.267,491
6.268,494
6.269,493
6.27,494
6.271,491
6.272,489
6.273,483
6.274,477
6.275,482
6.276,483
6.277,477
6.278,470
6.279,465
6.28,467
6.281,470
6.282,470
6.283,469
6.284,472
6.285,478
6.286,480
6.287,478
6.288,471
6.289,468
6.29,463
6.291,457
6.292,454
6.293,451
6.294,452
6.295,454
6.296,460
6.297,466
6.298,468
6.299,465
6.3,464
6.301,463
6.302,461
6.303,460
6.304,461
6.305,461
6.306,461
6.307,459
6.308,462
6.309,461
6.31,462
6.311,461
6.312,462
6.313,464
6.314,464
6.315,465
6.316,466
6.317,470
6.318,469
6.319,460
6.32,459
6.321,461
6.322,460
6.323,457
6.324,461
6.325,464
6.326,465
6.327,468
6.328,471
6.329,472
6.33,474
6.331,475
6.332,477
6.333,474
6.334,468
6.335,471
6.336,476
6.337,479
6.338,481
6.339,480
6.34,482
6.341,481
6.342,477
6.343,473
6.344,468
6.345,465
6.346,465
6.347,468
6.348,466
6.349,464
6.35,473
6.351,479
6.352,476
6.353,475
6.354,473
6.355,475
6.356,483
6.357,489
6.358,490
6.359,491
6.36,491
6.361,491
6.362,487
6.363,480
6.364,478
6.365,477
6.366,478
6.367,479
6.368,476
6.369,478
6.37,479
6.371,478
6.372,479
6.373,481
6.374,480
6.375,475
6.376,471
6.377,472
6.378,473
6.379,479
6.38,487
6.381,492
6.382,493
6.383,498
6.384,499
6.385,501
6.386,498
6.387,492
6.388,489
6.389,494
6.39,497
6.391,496
6.392,492
6.393,492
6.394,494
6.395,496
6.396,499
6.397,502
6.398,502
6.399,499
6.4,497
6.401,492
6.402,484
6.403,489
6.404,493
6.405,487
6.406,479
6.407,478
6.408,477
6.409,478
6.41,475
6.411,474
6.412,473
6.413,473
6.414,480
6.415,486
6.416,488
6.417,490
6.418,491
6.419,495
6.42,499
6.421,502
6.422,505
6.423,507
6.424,505
6.425,506
6.426,506
6.427,503
6.428,498
6.429,491
6.43,488
6.431,482
6.432,480
6.433,479
6.434,481
6.435,478
6.436,480
6.437,489
6.438,499
6.439,504
6.44,507
6.441,512
6.442,516
6.443,518
6.444,516
6.445,510
6.446,504
6.447,501
6.448,499
6.449,495
6.45,495
6.451,495
6.452,494
6.453,497
6.454,501
6.455,502
6.456,501
6.457,501
6.458,499
6.459,500
6.46,503
6.461,503
6.462,506
6.463,510
6.464,510
6.465,511
6.466,517
6.467,524
6.468,523
6.469,521
6.47,514
6.471,508
6.472,504
6.473,498
6.474,494
6.475,497
6.476,502
6.477,510
6.478,515
6.479,520
6.48,524
6.481,522
6.482,519
6.483,524
6.484,523
6.485,517
6.486,512
6.487,510
6.488,506
6.489,505
6.49,507
6.491,508
6.492,514
6.493,522
6.494,522
6.495,515
6.496,502
6.497,498
6.498,499
6.499,499
6.5,501
6.501,504
6.502,509
6.503,510
6.504,508
6.505,510
6.506,502
6.507,492
6.508,488
6.509,483
6.51,482
6.511,482
6.512,487
6.513,490
6.514,491
6.515,490
6.516,491
6.517,493
6.518,492
6.519,491
6.52,492
6.521,492
6.522,492
6.523,488
6.524,484
6.525,486
6.526,487
6.527,484
6.528,479
6.529,480
6.53,483
6.531,483
6.532,484
6.533,487
6.534,492
6.535,498
6.536,499
6.537,498
6.538,496
6.539,495
6.54,493
6.541,488
6.542,482
6.543,479
6.544,477
6.545,477
6.546,479
6.547,481
6.548,486
6.549,488
6.55,492
6.551,495
6.552,496
6.553,496
6.554,497
6.555,497
6.556,498
6.557,496
6.558,497
6.559,497
6.56,497
6.561,494
6.562,487
6.563,484
6.564,487
6.565,494
6.566,496
6.567,500
6.568,507
6.569,511
6.57,512
6.571,508
6.572,504
6.573,504
6.574,504
6.575,504
6.576,496
6.577,486
6.578,483
6.579,487
6.58,492
6.581,486
6.582,484
6.583,484
6.584,483
6.585,484
6.586,490
6.587,504
6.588,523
6.589,544
6.59,564
6.591,576
6.592,577
6.593,585
6.594,599
6.595,618
6.596,641
6.597,658
6.598,670
6.599,687
6.6,705
6.601,723
6.602,734
6.603,744
6.604,758
6.605,765
6.606,768
6.607,776
6.608,775
6.609,771
6.61,772
6.611,768
6.612,753
6.613,732
6.614,707
6.615,676
6.616,644
6.617,604
6.618,560
6.619,516
6.62,483
6.621,449
6.622,416
6.623,387
6.624,359
6.625,340
6.626,322
6.627,308
6.628,299
6.629,295
6.63,292
6.631,286
6.632,283
6.633,291
6.634,294
6.635,299
6.636,309
6.637,310
6.638,316
6.639,327
6.64,337
6.641,349
6.642,361
6.643,364
6.644,369
6.645,376
6.646,382
6.647,388
6.648,395
6.649,401
6.65,413
6.651,424
6.652,432
6.653,441
6.654,452
6.655,462
6.656,469
6.657,472
6.658,478
6.659,480
6.66,483
6.661,487
6.662,489
6.663,488
6.664,489
6.665,490
6.666,490
6.667,491
6.668,493
6.669,495
6.67,496
6.671,500
6.672,504
6.673,500
6.674,496
6.675,496
6.676,499
6.677,503
6.678,499
6.679,496
6.68,490
6.681,486
6.682,492
6.683,504
6.684,512
6.685,519
6.686,522
6.687,524
6.688,516
6.689,512
6.69,510
6.691,511
6.692,515
6.693,511
6.694,509
6.695,512
6.696,516
6.697,519
6.698,521
6.699,518
6.7,515
6.701,515
6.702,515
6.703,513
6.704,515
6.705,515
6.706,515
6.707,514
6.708,515
6.709,513
6.71,508
6.711,501
6.712,497
6.713,501
6.714,507
6.715,510
6.716,513
6.717,516
6.718,516
6.719,523
6.72,530
6.721,535
6.722,534
6.723,528
6.724,526
6.725,524
6.726,520
6.727,520
6.728,517
6.729,513
6.73,513
6.731,514
6.732,519
6.733,526
6.734,533
6.735,531
6.736,523
6.737,516
6.738,515
6.739,517
6.74,520
6.741,521
6.742,519
6.743,515
6.744,511
6.745,506
6.746,502
6.747,505
6.748,513
6.749,514
6.75,511
6.751,507
6.752,508
6.753,510
6.754,510
6.755,514
6.756,516
6.757,515
6.758,518
6.759,517
6.76,516
6.761,522
6.762,527
6.763,529
6.764,528
6.765,534
6.766,539
6.767,540
6.768,537
6.769,527
6.77,523
6.771,517
6.772,517
6.773,524
6.774,530
6.775,534
6.776,535
6.777,539
6.778,543
6.779,547
6.78,543
6.781,539
6.782,539
6.783,536
6.784,532
6.785,526
6.786,527
6.787,531
6.788,538
6.789,538
6.79,534
6.791,529
6.792,527
6.793,526
6.794,529
6.795,537
6.796,547
6.797,556
6.798,557
6.799,559
6.8,562
6.801,563
6.802,564
6.803,562
6.804,558
6.805,556
6.806,556
6.807,559
6.808,559
6.809,558
6.81,558
6.811,556
6.812,556
6.813,559
6.814,564
6.815,571
6.816,577
6.817,574
6.818,569
6.819,570
6.82,569
6.821,570
6.822,569
6.823,568
6.824,565
6.825,566
6.826,560
6.827,551
6.828,548
6.829,547
6.83,545
6.831,547
6.832,553
6.833,558
6.834,559
6.835,555
6.836,548
6.837,544
6.838,539
6.839,537
6.84,539
6.841,534
6.842,529
6.843,532
6.844,534
6.845,535
6.846,535
6.847,537
6.848,536
6.849,533
6.85,531
6.851,526
6.852,520
6.853,512
6.854,508
6.855,508
6.856,507
6.857,506
6.858,507
6.859,507
6.86,509
6.861,508
6.862,500
6.863,498
6.864,499
6.865,500
6.866,498
6.867,489
6.868,480
6.869,482
6.87,483
6.871,480
6.872,482
6.873,483
6.874,481
6.875,479
6.876,478
6.877,470
6.878,462
6.879,463
6.88,471
6.881,476
6.882,476
6.883,482
6.884,488
6.885,493
6.886,492
6.887,491
6.888,487
6.889,481
6.89,472
6.891,473
6.892,472
6.893,468
6.894,466
6.895,467
6.896,471
6.897,473
6.898,475
6.899,475
6.9,477
6.901,476
6.902,471
6.903,471
6.904,473
6.905,475
6.906,478
6.907,476
6.908,476
6.909,473
6.91,476
6.911,476
6.912,477
6.913,476
6.914,472
6.915,468
6.916,464
6.917,462
6.918,462
6.919,464
6.92,469
6.921,475
6.922,476
6.923,479
6.924,483
6.925,488
6.926,486
6.927,480
6.928,475
6.929,475
6.93,481
6.931,487
6.932,486
6.933,480
6.934,479
6.935,486
6.936,490
6.937,497
6.938,500
6.939,500
6.94,499
6.941,494
6.942,488
6.943,488
6.944,487
6.945,487
6.946,487
6.947,491
6.948,491
6.949,492
6.95,496
6.951,498
6.952,497
6.953,498
6.954,500
6.955,499
6.956,503
6.957,506
6.958,507
6.959,502
6.96,498
6.961,495
6.962,500
6.963,499
6.964,499
6.965,492
6.966,482
6.967,475
6.968,476
6.969,481
6.97,479
6.971,479
6.972,484
6.973,487
6.974,489
6.975,492
6.976,494
6.977,494
6.978,495
6.979,499
6.98,501
6.981,501
6.982,504
6.983,505
6.984,503
6.985,502
6.986,502
6.987,499
6.988,495
6.989,489
6.99,482
6.991,481
6.992,485
6.993,491
6.994,504
6.995,514
6.996,516
6.997,515
6.998,511
6.999,508
7.0,510
7.001,509
7.002,507
7.003,501
7.004,497
7.005,493
7.006,496
7.007,502
7.008,502
7.009,503
7.01,507
7.011,510
7.012,509
7.013,509
7.014,511
7.015,512
7.016,508
7.017,508
7.018,501
7.019,496
7.02,496
7.021,504
7.022,509
7.023,508
7.024,506
7.025,504
7.026,503
7.027,504
7.028,509
7.029,512
7.03,510
7.031,504
7.032,497
7.033,498
7.034,497
7.035,494
7.036,489
7.037,488
7.038,490
7.039,493
7.04,497
7.041,496
7.042,490
7.043,492
7.044,497
7.045,503
7.046,505
7.047,510
7.048,511
7.049,511
7.05,514
7.051,513
7.052,512
7.053,510
7.054,509
7.055,506
7.056,506
7.057,503
7.058,497
7.059,496
7.06,494
7.061,493
7.062,497
7.063,505
7.064,512
7.065,522
7.066,529
7.067,524
7.068,519
7.069,514
7.07,513
7.071,510
7.072,508
7.073,513
7.074,516
7.075,519
7.076,520
7.077,527
7.078,531
7.079,532
7.08,533
7.081,534
7.082,534
7.083,535
7.084,534
7.085,535
7.086,534
7.087,529
7.088,527
7.089,529
7.09,532
7.091,532
7.092,529
7.093,524
7.094,523
7.095,524
7.096,521
7.097,515
7.098,513
7.099,514
7.1,513
7.101,512
7.102,512
7.103,514
7.104,513
7.105,511
7.106,505
7.107,499
7.108,499
7.109,501
7.11,503
7.111,504
7.112,507
7.113,507
7.114,499
7.115,493
7.116,490
7.117,491
7.118,495
7.119,494
7.12,493
7.121,494
7.122,491
7.123,486
7.124,486
7.125,483
7.126,481
7.127,480
7.128,479
7.129,483
7.13,493
7.131,499
7.132,498
7.133,497
7.134,496
7.135,491
7.136,486
7.137,483
7.138,479
7.139,479
7.14,487
7.141,495
7.142,503
7.143,505
7.144,504
7.145,499
7.146,494
7.147,488
7.148,480
7.149,477
7.15,474
7.151,471
7.152,471
7.153,479
7.154,489
7.155,495
7.156,496
7.157,492
7.158,486
7.159,484
7.16,480
7.161,481
7.162,483
7.163,492
7.164,501
7.165,510
7.166,516
7.167,515
7.168,511
7.169,506
7.17,496
7.171,491
7.172,488
7.173,487
7.174,486
7.175,486
7.176,489
7.177,497
7.178,504
7.179,508
7.18,509
7.181,508
7.182,505
7.183,504
7.184,502
7.185,502
7.186,503
7.187,504
7.188,508
7.189,508
7.19,512
7.191,520
7.192,536
7.193,552
7.194,567
7.195,585
7.196,598
7.197,613
7.198,635
7.199,655
7.2,669
7.201,684
7.202,700
7.203,713
7.204,726
7.205,742
7.206,762
7.207,785
7.208,797
7.209,804
7.21,805
7.211,803
7.212,800
7.213,794
7.214,782
7.215,764
7.216,741
7.217,714
7.218,686
7.219,653
7.22,608
7.221,558
7.222,501
7.223,444
7.224,398
7.225,359
7.226,329
7.227,305
7.228,286
7.229,273
7.23,271
7.231,271
7.232,268
7.233,269
7.234,268
7.235,266
7.236,268
7.237,276
7.238,280
7.239,281
7.24,287
7.241,294
7.242,303
7.243,310
7.244,320
7.245,330
7.246,343
7.247,359
7.248,369
7.249,375
7.25,390
7.251,410
7.252,423
7.253,429
7.254,437
7.255,446
7.256,454
7.257,463
7.258,476
7.259,484
7.26,489
7.261,491
7.262,488
7.263,488
7.264,491
7.265,495
7.266,495
7.267,499
7.268,503
7.269,506
7.27,507
7.271,506
7.272,511
7.273,515
7.274,513
7.275,510
7.276,510
7.277,507
7.278,503
7.279,504
7.28,506
7.281,508
7.282,510
7.283,513
7.284,514
7.285,513
7.286,512
7.287,510
7.288,508
7.289,508
7.29,508
7.291,504
7.292,506
7.293,514
7.294,518
7.295,522
7.296,531
7.297,534
7.298,529
7.299,519
7.3,515
7.301,515
7.302,513
7.303,514
7.304,515
7.305,518
7.306,519
7.307,520
7.308,518
7.309,516
7.31,514
7.311,515
7.312,515
7.313,514
7.314,512
7.315,508
7.316,504
7.317,506
7.318,512
7.319,519
7.32,521
7.321,521
7.322,518
7.323,517
7.324,519
7.325,520
7.326,518
7.327,515
7.328,516
7.329,520
7.33,522
7.331,523
7.332,528
7.333,531
7.334,535
7.335,540
7.336,542
7.337,542
7.338,541
7.339,542
7.34,539
7.341,536
7.342,533
7.343,530
7.344,534
7.345,533
7.346,528
7.347,524
7.348,529
7.349,532
7.35,534
7.351,536
7.352,535
7.353,532
7.354,531
7.355,533
7.356,529
7.357,518
7.358,508
7.359,500
7.36,500
7.361,508
7.362,519
7.363,531
7.364,534
7.365,532
7.366,535
7.367,540
7.368,545
7.369,547
7.37,551
7.371,555
7.372,556
7.373,555
7.374,553
7.375,551
7.376,543
7.377,537
7.378,542
7.379,555
7.38,561
7.381,559
7.382,557
7.383,552
7.384,550
7.385,551
7.386,551
7.387,551
7.388,556
7.389,563
7.39,572
7.391,576
7.392,577
7.393,576
7.394,574
7.395,575
7.396,572
7.397,571
7.398,568
7.399,565
7.4,563
7.401,564
7.402,571
7.403,568
7.404,562
7.405,551
7.406,541
7.407,544
7.408,554
7.409,563
7.41,571
7.411,581
7.412,588
7.413,591
7.414,588
7.415,585
7.416,580
7.417,575
7.418,571
7.419,569
7.42,570
7.421,569
7.422,563
7.423,561
7.424,565
7.425,569
7.426,578
7.427,587
7.428,588
7.429,583
7.43,582
7.431,583
7.432,582
7.433,579
7.434,575
7.435,569
7.436,561
7.437,555
7.438,554
7.439,555
7.44,553
7.441,552
7.442,547
7.443,543
7.444,542
7.445,537
7.446,530
7.447,527
7.448,524
7.449,521
7.45,516
7.451,511
7.452,508
7.453,511
7.454,515
7.455,518
7.456,519
7.457,523
7.458,524
7.459,523
7.46,522
7.461,524
7.462,531
7.463,532
7.464,524
7.465,519
7.466,512
7.467,497
7.468,487
7.469,487
7.47,487
7.471,485
7.472,483
7.473,477
7.474,471
7.475,470
7.476,465
7.477,459
7.478,460
7.479,467
7.48,476
7.481,479
7.482,478
7.483,471
7.484,464
7.485,460
7.486,459
7.487,461
7.488,467
7.489,472
7.49,471
7.491,475
7.492,479
7.493,479
7.494,477
7.495,472
7.496,466
7.497,469
7.498,474
7.499,476
7.5,472
7.501,470
7.502,470
7.503,470
7.504,464
7.505,459
7.506,462
7.507,469
7.508,472
7.509,473
7.51,475
7.511,472
7.512,472
7.513,478
7.514,481
7.515,476
7.516,473
7.517,471
7.518,468
7.519,465
7.52,465
7.521,461
7.522,460
7.523,464
7.524,467
7.525,472
7.526,475
7.527,479
7.528,477
7.529,474
7.53,472
7.531,470
7.532,471
7.533,471
7.534,475
7.535,482
7.536,483
7.537,480
7.538,479
7.539,479
7.54,472
7.541,472
7.542,479
7.543,481
7.544,481
7.545,479
7.546,474
7.547,472
7.548,465
7.549,462
7.55,465
7.551,466
7.552,471
7.553,476
7.554,484
7.555,496
7.556,499
7.557,495
7.558,493
7.559,487
7.56,483
7.561,486
7.562,488
7.563,490
7.564,491
7.565,489
7.566,483
7.567,480
7.568,479
7.569,475
7.57,476
7.571,476
7.572,471
7.573,466
7.574,467
7.575,472
7.576,477
7.577,475
7.578,473
7.579,479
7.58,491
7.581,503
7.582,511
7.583,515
7.584,515
7.585,515
7.586,513
7.587,508
7.588,507
7.589,505
7.59,505
7.591,504
7.592,497
7.593,492
7.594,490
7.595,488
7.596,484
7.597,486
7.598,490
7.599,488
7.6,491
7.601,494
7.602,494
7.603,495
7.604,496
7.605,495
7.606,495
7.607,496
7.608,498
7.609,496
7.61,491
7.611,488
7.612,493
7.613,505
7.614,512
7.615,511
7.616,509
7.617,505
7.618,502
7.619,503
7.62,504
7.621,508
7.622,509
7.623,506
7.624,505
7.625,506
7.626,510
7.627,508
7.628,505
7.629,501
7.63,500
7.631,504
7.632,508
7.633,506
7.634,504
7.635,503
7.636,504
7.637,498
7.638,488
7.639,483
7.64,481
7.641,480
7.642,486
7.643,491
7.644,498
7.645,509
7.646,517
7.647,521
7.648,520
7.649,517
7.65,517
7.651,519
7.652,517
7.653,513
7.654,511
7.655,507
7.656,505
7.657,505
7.658,507
7.659,510
7.66,508
7.661,504
7.662,500
7.663,500
7.664,500
7.665,503
7.666,504
7.667,504
7.668,502
7.669,499
7.67,502
7.671,503
7.672,504
7.673,505
7.674,507
7.675,512
7.676,521
7.677,524
7.678,523
7.679,525
7.68,529
7.681,529
7.682,528
7.683,524
7.684,521
7.685,523
7.686,527
7.687,526
7.688,525
7.689,529
7.69,532
7.691,528
7.692,530
7.693,531
7.694,527
7.695,523
7.696,526
7.697,529
7.698,531
7.699,531
7.7,534
7.701,537
7.702,538
7.703,534
7.704,529
7.705,526
7.706,522
7.707,521
7.708,522
7.709,519
7.71,513
7.711,505
7.712,495
7.713,491
7.714,491
7.715,494
7.716,491
7.717,481
7.718,480
7.719,478
7.72,480
7.721,485
7.722,489
7.723,491
7.724,491
7.725,493
7.726,487
7.727,490
7.728,491
7.729,491
7.73,492
7.731,491
7.732,492
7.733,493
7.734,495
7.735,495
7.736,492
7.737,488
7.738,487
7.739,489
7.74,489
7.741,490
7.742,490
7.743,490
7.744,492
7.745,494
7.746,495
7.747,486
7.748,477
7.749,474
7.75,482
7.751,492
7.752,491
7.753,489
7.754,492
7.755,496
7.756,501
7.757,504
7.758,505
7.759,503
7.76,500
7.761,499
7.762,498
7.763,495
7.764,491
7.765,489
7.766,484
7.767,481
7.768,477
7.769,480
7.77,483
7.771,495
7.772,504
7.773,508
7.774,511
7.775,509
7.776,503
7.777,505
7.778,508
7.779,504
7.78,500
7.781,500
7.782,502
7.783,495
7.784,495
7.785,499
7.786,499
7.787,502
7.788,503
7.789,501
7.79,499
7.791,495
7.792,494
7.793,497
7.794,498
7.795,498
7.796,500
7.797,501
7.798,503
7.799,508
7.8,516
7.801,529
7.802,546
7.803,565
7.804,581
7.805,595
7.806,611
7.807,625
7.808,640
7.809,659
7.81,679
7.811,702
7.812,721
7.813,735
7.814,744
7.815,754
7.816,765
7.817,779
7.818,790
7.819,794
7.82,791
7.821,787
7.822,782
7.823,766
7.824,746
7.825,728
7.826,703
7.827,675
7.828,641
7.829,593
7.83,544
7.831,493
7.832,443
7.833,391
7.834,346
7.835,312
7.836,287
7.837,263
7.838,248
7.839,239
7.84,234
7.841,231
7.842,227
7.843,224
7.844,227
7.845,235
7.846,247
7.847,259
7.848,268
7.849,279
7.85,291
7.851,300
7.852,309
7.853,318
7.854,328
7.855,338
7.856,353
7.857,366
7.858,380
7.859,399
7.86,415
7.861,428
7.862,440
7.863,449
7.864,462
7.865,472
7.866,480
7.867,487
7.868,490
7.869,483
7.87,481
7.871,486
7.872,488
7.873,489
7.874,493
7.875,495
7.876,496
7.877,499
7.878,504
7.879,511
7.88,519
7.881,522
7.882,519
7.883,517
7.884,514
7.885,518
7.886,520
7.887,520
7.888,517
7.889,517
7.89,516
7.891,515
7.892,515
7.893,511
7.894,503
7.895,498
7.896,499
7.897,500
7.898,504
7.899,505
7.9,511
7.901,519
7.902,526
7.903,527
7.904,525
7.905,523
7.906,522
7.907,523
7.908,526
7.909,522
7.91,520
7.911,523
7.912,525
7.913,521
7.914,519
7.915,519
7.916,522
7.917,524
7.918,524
7.919,526
7.92,521
7.921,511
7.922,508
7.923,505
7.924,508
7.925,516
7.926,521
7.927,533
7.928,539
7.929,538
7.93,535
7.931,531
7.932,532
7.933,535
7.934,535
7.935,535
7.936,535
7.937,532
7.938,529
7.939,526
7.94,522
7.941,517
7.942,515
7.943,521
7.944,528
7.945,531
7.946,531
7.947,527
7.948,524
7.949,525
7.95,525
7.951,524
7.952,523
7.953,521
7.954,521
7.955,520
7.956,519
7.957,521
7.958,527
7.959,534
7.96,543
7.961,547
7.962,542
7.963,537
7.964,538
7.965,540
7.966,537
7.967,533
7.968,529
7.969,529
7.97,527
7.971,523
7.972,524
7.973,524
7.974,526
7.975,536
7.976,548
7.977,557
7.978,560
7.979,561
7.98,563
7.981,564
7.982,568
7.983,568
7.984,565
7.985,564
7.986,565
7.987,564
7.988,560
7.989,561
7.99,559
7.991,556
7.992,560
7.993,565
7.994,565
7.995,563
7.996,559
7.997,559
7.998,566
7.999,564
8.0,563
8.001,561
8.002,563
8.003,564
8.004,564
8.005,571
8.006,577
8.007,578
8.008,575
8.009,569
8.01,565
8.011,568
8.012,573
8.013,574
8.014,577
8.015,582
8.016,579
8.017,579
8.018,583
8.019,594
8.02,600
8.021,599
8.022,603
8.023,600
8.024,591
8.025,588
8.026,588
8.027,587
8.028,585
8.029,585
8.03,585
8.031,578
8.032,575
8.033,571
8.034,564
8.035,559
8.036,556
8.037,556
8.038,559
8.039,565
8.04,572
8.041,581
8.042,583
8.043,574
8.044,566
8.045,563
8.046,560
8.047,555
8.048,547
8.049,540
8.05,537
8.051,538
8.052,544
8.053,547
8.054,549
8.055,550
8.056,548
8.057,546
8.058,542
8.059,535
8.06,529
8.061,518
8.062,507
8.063,507
8.064,509
8.065,512
8.066,508
8.067,502
8.068,499
8.069,497
8.07,499
8.071,497
8.072,492
8.073,488
8.074,485
8.075,487
8.076,492
8.077,497
8.078,497
8.079,495
8.08,487
8.081,483
8.082,486
8.083,484
8.084,480
8.085,480
8.086,473
8.087,470
8.088,470
8.089,464
8.09,448
8.091,438
8.092,437
8.093,436
8.094,435
8.095,444
8.096,452
8.097,460
8.098,471
8.099,472
8.1,469
8.101,468
8.102,463
8.103,459
8.104,460
8.105,466
8.106,472
8.107,477
8.108,479
8.109,476
8.11,470
8.111,464
8.112,461
8.113,462
8.114,462
8.115,460
8.116,455
8.117,452
8.118,447
8.119,444
8.12,442
8.121,443
8.122,448
8.123,454
8.124,458
8.125,455
8.126,455
8.127,455
8.128,457
8.129,463
8.13,474
8.131,479
8.132,476
8.133,468
8.134,470
8.135,472
8.136,470
8.137,471
8.138,471
8.139,471
8.14,468
8.141,460
8.142,454
8.143,448
8.144,448
8.145,456
8.146,468
8.147,471
8.148,473
8.149,478
8.15,479
8.151,478
8.152,480
8.153,482
8.154,478
8.155,472
8.156,474
8.157,479
8.158,479
8.159,477
8.16,472
8.161,467
8.162,468
8.163,474
8.164,479
8.165,482
8.166,483
8.167,482
8.168,483
8.169,486
8.17,486
8.171,487
8.172,493
8.173,492
8.174,489
8.175,489
8.176,485
8.177,480
8.178,486
8.179,489
8.18,484
8.181,479
8.182,476
8.183,476
8.184,483
8.185,486
8.186,489
8.187,491
8.188,492
8.189,496
8.19,499
8.191,499
8.192,500
8.193,501
8.194,501
8.195,501
8.196,501
8.197,505
8.198,506
8.199,502
8.2,496
8.201,497
8.202,496
8.203,492
8.204,492
8.205,488
8.206,489
8.207,487
8.208,488
8.209,484
8.21,486
8.211,487
8.212,493
8.213,499
8.214,504
8.215,502
8.216,503
8.217,501
8.218,498
8.219,501
8.22,500
8.221,499
8.222,501
8.223,497
8.224,490
8.225,484
8.226,486
8.227,486
8.228,492
8.229,497
8.23,499
8.231,498
8.232,497
8.233,495
8.234,492
8.235,489
8.236,486
8.237,490
8.238,495
8.239,504
8.24,513
8.241,515
8.242,516
8.243,514
8.244,514
8.245,512
8.246,512
8.247,512
8.248,509
8.249,509
8.25,507
8.251,508
8.252,510
8.253,512
8.254,513
8.255,510
8.256,504
8.257,499
8.258,500
8.259,503
8.26,503
8.261,503
8.262,505
8.263,505
8.264,509
8.265,509
8.266,506
8.267,507
8.268,506
8.269,502
8.27,501
8.271,501
8.272,505
8.273,508
8.274,506
8.275,504
8.276,502
8.277,504
8.278,510
8.279,517
8.28,523
8.281,525
8.282,524
8.283,525
8.284,526
8.285,524
8.286,524
8.287,526
8.288,525
8.289,520
8.29,519
8.291,517
8.292,517
8.293,519
8.294,524
8.295,527
8.296,525
8.297,523
8.298,513
8.299,511
8.3,510
8.301,512
8.302,511
8.303,511
8.304,514
8.305,511
8.306,511
8.307,514
8.308,520
8.309,521
8.31,515
8.311,515
8.312,519
8.313,515
8.314,513
8.315,510
8.316,505
8.317,504
8.318,503
8.319,502
8.32,501
8.321,495
8.322,487
8.323,484
8.324,486
8.325,491
8.326,489
8.327,487
8.328,486
8.329,485
8.33,487
8.331,488
8.332,491
8.333,488
8.334,487
8.335,486
8.336,484
8.337,487
8.338,489
8.339,489
8.34,487
8.341,487
8.342,487
8.343,490
8.344,484
8.345,483
8.346,484
8.347,484
8.348,486
8.349,489
8.35,492
8.351,495
8.352,496
8.353,496
8.354,498
8.355,496
8.356,498
8.357,499
8.358,497
8.359,496
8.36,497
8.361,500
8.362,501
8.363,498
8.364,497
8.365,496
8.366,499
8.367,508
8.368,515
8.369,513
8.37,510
8.371,506
8.372,502
8.373,497
8.374,498
8.375,504
8.376,506
8.377,504
8.378,501
8.379,501
8.38,500
8.381,498
8.382,499
8.383,497
8.384,496
8.385,497
8.386,498
8.387,497
8.388,500
8.389,499
8.39,497
8.391,495
8.392,492
8.393,499
8.394,508
8.395,511
8.396,511
8.397,514
8.398,518
8.399,527
8.4,536
8.401,546
8.402,564
8.403,583
8.404,600
8.405,619
8.406,637
8.407,650
8.408,661
8.409,671
8.41,679
8.411,689
8.412,698
8.413,711
8.414,726
8.415,738
8.416,750
8.417,760
8.418,764
8.419,763
8.42,756
8.421,753
8.422,742
8.423,725
8.424,702
8.425,675
8.426,649
8.427,617
8.428,579
8.429,534
8.43,486
8.431,439
8.432,393
8.433,347
8.434,307
8.435,287
8.436,276
8.437,267
8.438,261
8.439,262
8.44,265
8.441,265
8.442,262
8.443,256
8.444,252
8.445,253
8.446,259
8.447,266
8.448,277
8.449,288
8.45,295
8.451,311
8.452,327
8.453,340
8.454,354
8.455,370
8.456,382
8.457,396
8.458,415
8.459,432
8.46,439
8.461,448
8.462,452
8.463,456
8.464,466
8.465,481
8.466,494
8.467,494
8.468,493
8.469,496
8.47,499
8.471,502
8.472,504
8.473,504
8.474,508
8.475,508
8.476,507
8.477,512
8.478,521
8.479,526
8.48,524
8.481,524
8.482,526
8.483,526
8.484,525
8.485,521
8.486,518
8.487,516
8.488,516
8.489,521
8.49,524
8.491,521
8.492,518
8.493,516
8.494,515
8.495,515
8.496,518
8.497,522
8.498,522
8.499,518
8.5,512
8.501,505
8.502,504
8.503,507
8.504,513
8.505,522
8.506,529
8.507,534
8.508,536
8.509,535
8.51,536
8.511,540
8.512,542
8.513,536
8.514,530
8.515,529
8.516,530
8.517,527
8.518,529
8.519,533
8.52,536
8.521,533
8.522,533
8.523,530
8.524,529
8.525,532
8.526,535
8.527,533
8.528,533
8.529,528
8.53,525
8.531,519
8.532,522
8.533,523
8.534,523
8.535,527
8.536,532
8.537,538
8.538,545
8.539,548
8.54,551
8.541,553
8.542,555
8.543,549
8.544,536
8.545,526
8.546,522
8.547,523
8.548,525
8.549,525
8.55,519
8.551,518
8.552,519
8.553,524
8.554,528
8.555,536
8.556,541
8.557,541
8.558,539
8.559,537
8.56,535
8.561,534
8.562,534
8.563,537
8.564,541
8.565,548
8.566,554
8.567,559
8.568,562
8.569,558
8.57,553
8.571,547
8.572,546
8.573,547
8.574,546
8.575,548
8.576,548
8.577,549
8.578,554
8.579,557
8.58,560
8.581,561
8.582,560
8.583,562
8.584,564
8.585,565
8.586,563
8.587,563
8.588,565
8.589,564
8.59,565
8.591,563
8.592,559
8.593,554
8.594,552
8.595,555
8.596,562
8.597,564
8.598,568
8.599,572
8.6,575
8.601,573
8.602,570
8.603,569
8.604,569
8.605,572
8.606,571
8.607,570
8.608,572
8.609,577
8.61,586
8.611,589
8.612,589
8.613,590
8.614,589
8.615,594
8.616,592
8.617,588
8.618,588
8.619,587
8.62,584
8.621,582
8.622,585
8.623,590
8.624,591
8.625,585
8.626,582
8.627,579
8.628,579
8.629,579
8.63,578
8.631,580
8.632,580
8.633,577
8.634,573
8.635,568
8.636,566
8.637,565
8.638,564
8.639,554
8.64,543
8.641,537
8.642,541
8.643,553
8.644,563
8.645,571
8.646,571
8.647,567
8.648,563
8.649,555
8.65,548
8.651,548
8.652,544
8.653,545
8.654,547
8.655,553
8.656,553
8.657,548
8.658,547
8.659,539
8.66,521
8.661,513
8.662,508
8.663,503
8.664,502
8.665,504
8.666,506
8.667,510
8.668,511
8.669,509
8.67,511
8.671,510
8.672,508
8.673,503
8.674,496
8.675,494
8.676,492
8.677,487
8.678,479
8.679,472
8.68,469
8.681,468
8.682,468
8.683,470
8.684,468
8.685,461
8.686,454
8.687,457
8.688,463
8.689,463
8.69,460
8.691,459
8.692,464
8.693,465
8.694,459
8.695,452
8.696,448
8.697,448
8.698,448
8.699,450
8.7,446
8.701,441
8.702,438
8.703,441
8.704,444
8.705,446
8.706,451
8.707,455
8.708,459
8.709,459
8.71,457
8.711,451
8.712,445
8.713,440
8.714,444
8.715,449
8.716,450
8.717,454
8.718,454
8.719,454
8.72,456
8.721,455
8.722,456
8.723,453
8.724,450
8.725,447
8.726,445
8.727,447
8.728,453
8.729,455
8.73,454
8.731,451
8.732,449
8.733,451
8.734,454
8.735,460
8.736,463
8.737,465
8.738,465
8.739,466
8.74,459
8.741,452
8.742,451
8.743,457
8.744,462
8.745,461
8.746,462
8.747,457
8.748,455
8.749,457
8.75,466
8.751,472
8.752,474
8.753,473
8.754,472
8.755,465
8.756,463
8.757,463
8.758,461
8.759,460
8.76,461
8.761,464
8.762,472
8.763,475
8.764,477
8.765,481
8.766,483
8.767,481
8.768,482
8.769,486
8.77,489
8.771,488
8.772,485
8.773,479
8.774,477
8.775,486
8.776,493
8.777,494
8.778,495
8.779,497
8.78,492
8.781,489
8.782,484
8.783,479
8.784,478
8.785,478
8.786,479
8.787,477
8.788,476
8.789,474
8.79,478
8.791,479
8.792,483
8.793,483
8.794,483
8.795,494
8.796,495
8.797,492
8.798,493
8.799,489
8.8,483
8.801,483
8.802,485
8.803,489
8.804,490
8.805,488
8.806,487
8.807,487
8.808,487
8.809,488
8.81,486
8.811,487
8.812,491
8.813,498
8.814,502
8.815,501
8.816,497
8.817,495
8.818,491
8.819,495
8.82,498
8.821,503
8.822,499
8.823,493
8.824,488
8.825,487
8.826,490
8.827,494
8.828,502
8.829,509
8.83,515
8.831,514
8.832,505
8.833,499
8.834,495
8.835,493
8.836,501
8.837,507
8.838,505
8.839,505
8.84,503
8.841,500
8.842,502
8.843,501
8.844,503
8.845,502
8.846,499
8.847,500
8.848,504
8.849,504
8.85,503
8.851,504
8.852,503
8.853,502
8.854,495
8.855,494
8.856,496
8.857,497
8.858,489
8.859,484
8.86,485
8.861,484
8.862,484
8.863,487
8.864,491
8.865,493
8.866,498
8.867,504
8.868,511
8.869,515
8.87,516
8.871,517
8.872,520
8.873,524
8.874,521
8.875,515
8.876,514
8.877,517
8.878,522
8.879,523
8.88,526
8.881,529
8.882,531
8.883,533
8.884,532
8.885,529
8.886,526
8.887,523
8.888,522
8.889,521
8.89,519
8.891,518
8.892,520
8.893,516
8.894,514
8.895,518
8.896,512
8.897,507
8.898,507
8.899,505
8.9,504
8.901,507
8.902,509
8.903,508
8.904,504
8.905,503
8.906,505
8.907,501
8.908,500
8.909,497
8.91,489
8.911,485
8.912,488
8.913,493
8.914,499
8.915,505
8.916,505
8.917,508
8.918,508
8.919,507
8.92,505
8.921,500
8.922,494
8.923,490
8.924,490
8.925,485
8.926,481
8.927,481
8.928,478
8.929,476
8.93,480
8.931,487
8.932,490
8.933,492
8.934,495
8.935,493
8.936,486
8.937,480
8.938,479
8.939,485
8.94,492
8.941,498
8.942,500
8.943,496
8.944,491
8.945,491
8.946,490
8.947,490
8.948,493
8.949,493
8.95,491
8.951,490
8.952,497
8.953,497
8.954,492
8.955,490
8.956,494
8.957,492
8.958,496
8.959,495
8.96,491
8.961,490
8.962,491
8.963,490
8.964,486
8.965,485
8.966,484
8.967,483
8.968,486
8.969,490
8.97,496
8.971,499
8.972,504
8.973,503
8.974,499
8.975,501
8.976,504
8.977,509
8.978,515
8.979,514
8.98,513
8.981,509
8.982,504
8.983,497
8.984,492
8.985,487
8.986,489
8.987,494
8.988,496
8.989,501
8.99,513
8.991,524
8.992,530
8.993,539
8.994,550
8.995,565
8.996,581
8.997,594
8.998,610
8.999,625
9.0,643
9.001,660
9.002,677
9.003,690
9.004,703
9.005,715
9.006,723
9.007,737
9.008,748
9.009,757
9.01,766
9.011,773
9.012,782
9.013,786
9.014,786
9.015,784
9.016,774
9.017,763
9.018,744
9.019,716
9.02,685
9.021,650
9.022,614
9.023,573
9.024,525
9.025,478
9.026,433
9.027,391
9.028,351
9.029,320
9.03,298
9.031,281
9.032,273
9.033,273
9.034,276
9.035,276
9.036,277
9.037,276
9.038,273
9.039,273
9.04,275
9.041,273
9.042,270
9.043,275
9.044,284
9.045,293
9.046,308
9.047,337
9.048,366
9.049,388
9.05,399
9.051,407
9.052,417
9.053,429
9.054,434
9.055,440
9.056,446
9.057,451
9.058,454
9.059,461
9.06,472
9.061,489
9.062,504
9.063,508
9.064,505
9.065,502
9.066,498
9.067,498
9.068,499
9.069,500
9.07,504
9.071,505
9.072,508
9.073,512
9.074,514
9.075,516
9.076,521
9.077,526
9.078,528
9.079,528
9.08,518
9.081,517
9.082,515
9.083,511
9.084,512
9.085,513
9.086,515
9.087,519
9.088,517
9.089,517
9.09,518
9.091,519
9.092,521
9.093,521
9.094,520
9.095,515
9.096,513
9.097,515
9.098,517
9.099,522
9.1,523
9.101,521
9.102,522
9.103,517
9.104,509
9.105,507
9.106,506
9.107,506
9.108,504
9.109,507
9.11,512
9.111,517
9.112,516
9.113,516
9.114,519
9.115,526
9.116,525
9.117,521
9.118,524
9.119,530
9.12,529
9.121,529
9.122,531
9.123,534
9.124,537
9.125,534
9.126,532
9.127,534
9.128,530
9.129,526
9.13,523
9.131,519
9.132,515
9.133,516
9.134,518
9.135,517
9.136,515
9.137,515
9.138,520
9.139,524
9.14,524
9.141,522
9.142,520
9.143,521
9.144,524
9.145,527
9.146,527
9.147,527
9.148,531
9.149,538
9.15,541
9.151,540
9.152,541
9.153,536
9.154,527
9.155,525
9.156,521
9.157,523
9.158,530
9.159,532
9.16,542
9.161,552
9.162,561
9.163,563
9.164,557
9.165,552
9.166,545
9.167,543
9.168,544
9.169,540
9.17,540
9.171,541
9.172,542
9.173,542
9.174,541
9.175,542
9.176,541
9.177,539
9.178,538
9.179,540
9.18,544
9.181,545
9.182,543
9.183,539
9.184,538
9.185,540
9.186,542
9.187,540
9.188,536
9.189,532
9.19,532
9.191,532
9.192,534
9.193,537
9.194,539
9.195,544
9.196,552
9.197,559
9.198,563
9.199,568
9.2,578
9.201,582
9.202,580
9.203,578
9.204,575
9.205,571
9.206,573
9.207,579
9.208,577
9.209,570
9.21,571
9.211,575
9.212,571
9.213,569
9.214,574
9.215,577
9.216,576
9.217,574
9.218,573
9.219,572
9.22,568
9.221,569
9.222,568
9.223,567
9.224,566
9.225,567
9.226,572
9.227,574
9.228,572
9.229,573
9.23,578
9.231,579
9.232,574
9.233,566
9.234,561
9.235,556
9.236,557
9.237,560
9.238,564
9.239,564
9.24,561
9.241,559
9.242,559
9.243,554
9.244,549
9.245,544
9.246,541
9.247,540
9.248,536
9.249,538
9.25,538
9.251,537
9.252,538
9.253,536
9.254,530
9.255,521
9.256,513
9.257,509
9.258,504
9.259,504
9.26,509
9.261,511
9.262,513
9.263,516
9.264,515
9.265,513
9.266,511
9.267,507
9.268,506
9.269,501
9.27,497
9.271,497
9.272,499
9.273,497
9.274,492
9.275,490
9.276,492
9.277,488
9.278,482
9.279,481
9.28,483
9.281,481
9.282,478
9.283,475
9.284,475
9.285,472
9.286,467
9.287,464
9.288,464
9.289,466
9.29,468
9.291,470
9.292,471
9.293,473
9.294,475
9.295,476
9.296,477
9.297,478
9.298,476
9.299,472
9.3,471
9.301,470
9.302,472
9.303,472
9.304,468
9.305,467
9.306,465
9.307,465
9.308,466
9.309,464
9.31,466
9.311,473
9.312,476
9.313,465
9.314,458
9.315,461
9.316,466
9.317,471
9.318,473
9.319,472
9.32,472
9.321,473
9.322,478
9.323,480
9.324,479
9.325,478
9.326,473
9.327,469
9.328,469
9.329,468
9.33,468
9.331,472
9.332,481
9.333,488
9.334,488
9.335,490
9.336,486
9.337,483
9.338,481
9.339,479
9.34,479
9.341,481
9.342,487
9.343,490
9.344,492
9.345,496
9.346,501
9.347,499
9.348,493
9.349,494
9.35,500
9.351,504
9.352,500
9.353,497
9.354,499
9.355,498
9.356,495
9.357,493
9.358,491
9.359,483
9.36,474
9.361,474
9.362,477
9.363,480
9.364,482
9.365,484
9.366,486
9.367,486
9.368,488
9.369,496
9.37,501
9.371,499
9.372,492
9.373,490
9.374,496
9.375,499
9.376,498
9.377,497
9.378,492
9.379,490
9.38,489
9.381,490
9.382,492
9.383,489
9.384,489
9.385,492
9.386,492
9.387,492
9.388,489
9.389,482
9.39,483
9.391,486
9.392,487
9.393,487
9.394,485
9.395,487
9.396,489
9.397,489
9.398,492
9.399,496
9.4,495
9.401,492
9.402,491
9.403,481
9.404,480
9.405,485
9.406,490
9.407,489
9.408,495
9.409,497
9.41,497
9.411,500
9.412,503
9.413,507
9.414,512
9.415,511
9.416,510
9.417,508
9.418,507
9.419,508
9.42,509
9.421,506
9.422,505
9.423,510
9.424,509
9.425,506
9.426,503
9.427,503
9.428,502
9.429,503
9.43,508
9.431,509
9.432,512
9.433,512
9.434,514
9.435,510
9.436,510
9.437,509
9.438,506
9.439,504
9.44,509
9.441,514
9.442,514
9.443,505
9.444,502
9.445,500
9.446,500
9.447,496
9.448,494
9.449,491
9.45,494
9.451,496
9.452,498
9.453,498
9.454,500
9.455,501
9.456,506
9.457,508
9.458,505
9.459,502
9.46,503
9.461,509
9.462,515
9.463,519
9.464,521
9.465,525
9.466,519
9.467,514
9.468,515
9.469,515
9.47,515
9.471,515
9.472,516
9.473,516
9.474,513
9.475,515
9.476,516
9.477,516
9.478,513
9.479,517
9.48,519
9.481,521
9.482,522
9.483,520
9.484,522
9.485,525
9.486,522
9.487,518
9.488,514
9.489,508
9.49,506
9.491,507
9.492,512
9.493,514
9.494,520
9.495,518
9.496,514
9.497,515
9.498,515
9.499,513
9.5,512
9.501,512
9.502,511
9.503,509
9.504,505
9.505,502
9.506,493
9.507,487
9.508,491
9.509,492
9.51,493
9.511,492
9.512,492
9.513,491
9.514,489
9.515,488
9.516,487
9.517,489
9.518,494
9.519,496
9.52,496
9.521,490
9.522,483
9.523,480
9.524,477
9.525,472
9.526,474
9.527,481
9.528,483
9.529,477
9.53,477
9.531,478
9.532,480
9.533,479
9.534,477
9.535,476
9.536,476
9.537,483
9.538,492
9.539,500
9.54,506
9.541,510
9.542,513
9.543,512
9.544,509
9.545,510
9.546,507
9.547,502
9.548,497
9.549,495
9.55,496
9.551,496
9.552,492
9.553,492
9.554,493
9.555,495
9.556,496
9.557,495
9.558,495
9.559,499
9.56,501
9.561,498
9.562,497
9.563,500
9.564,505
9.565,506
9.566,507
9.567,507
9.568,508
9.569,505
9.57,502
9.571,503
9.572,506
9.573,505
9.574,503
9.575,510
9.576,512
9.577,512
9.578,515
9.579,510
9.58,502
9.581,498
9.582,497
9.583,496
9.584,498
9.585,504
9.586,514
9.587,526
9.588,535
9.589,549
9.59,564
9.591,577
9.592,592
9.593,610
9.594,633
9.595,659
9.596,672
9.597,676
9.598,679
9.599,685
9.6,701
9.601,722
9.602,750
9.603,778
9.604,794
9.605,802
9.606,807
9.607,807
9.608,798
9.609,787
9.61,780
9.611,764
9.612,743
9.613,721
9.614,695
9.615,667
9.616,630
9.617,584
9.618,534
9.619,486
9.62,442
9.621,399
9.622,365
9.623,342
9.624,323
9.625,308
9.626,302
9.627,295
9.628,294
9.629,295
9.63,292
9.631,288
9.632,288
9.633,285
9.634,283
9.635,288
9.636,301
9.637,309
9.638,316
9.639,324
9.64,335
9.641,349
9.642,361
9.643,368
9.644,376
9.645,390
9.646,401
9.647,410
9.648,415
9.649,422
9.65,433
9.651,445
9.652,459
9.653,471
9.654,476
9.655,479
9.656,484
9.657,486
9.658,484
9.659,482
9.66,481
9.661,482
9.662,483
9.663,484
9.664,483
9.665,484
9.666,492
9.667,491
9.668,489
9.669,484
9.67,484
9.671,493
9.672,497
9.673,500
9.674,501
9.675,504
9.676,510
9.677,512
9.678,515
9.679,516
9.68,518
9.681,518
9.682,521
9.683,519
9.684,510
9.685,505
9.686,502
9.687,503
9.688,509
9.689,513
9.69,512
9.691,514
9.692,514
9.693,516
9.694,521
9.695,522
9.696,523
9.697,524
9.698,527
9.699,522
9.7,519
9.701,521
9.702,525
9.703,529
9.704,532
9.705,530
9.706,526
9.707,519
9.708,518
9.709,509
9.71,502
9.711,499
9.712,496
9.713,500
9.714,508
9.715,511
9.716,514
9.717,519
9.718,520
9.719,519
9.72,523
9.721,522
9.722,519
9.723,522
9.724,526
9.725,526
9.726,527
9.727,529
9.728,529
9.729,527
9.73,526
9.731,529
9.732,535
9.733,539
9.734,539
9.735,537
9.736,534
9.737,533
9.738,533
9.739,536
9.74,539
9.741,537
9.742,537
9.743,541
9.744,540
9.745,537
9.746,535
9.747,535
9.748,529
9.749,525
9.75,524
9.751,519
9.752,515
9.753,521
9.754,525
9.755,528
9.756,531
9.757,536
9.758,541
9.759,539
9.76,539
9.761,537
9.762,535
9.763,537
9.764,538
9.765,538
9.766,538
9.767,536
9.768,530
9.769,528
9.77,533
9.771,535
9.772,533
9.773,533
9.774,536
9.775,540
9.776,540
9.777,535
9.778,532
9.779,534
9.78,540
9.781,548
9.782,555
9.783,557
9.784,558
9.785,558
9.786,559
9.787,556
9.788,556
9.789,559
9.79,559
9.791,563
9.792,564
9.793,561
9.794,560
9.795,560
9.796,564
9.797,571
9.798,572
9.799,567
9.8,561
9.801,560
9.802,559
9.803,558
9.804,556
9.805,555
9.806,560
9.807,567
9.808,571
9.809,575
9.81,581
9.811,582
9.812,581
9.813,582
9.814,580
9.815,576
9.816,577
9.817,575
9.818,571
9.819,566
9.82,563
9.821,556
9.822,555
9.823,556
9.824,559
9.825,560
9.826,563
9.827,565
9.828,569
9.829,571
9.83,567
9.831,562
9.832,559
9.833,555
9.834,555
9.835,560
9.836,561
9.837,560
9.838,555
9.839,551
9.84,548
9.841,543
9.842,538
9.843,532
9.844,525
9.845,518
9.846,515
9.847,512
9.848,511
9.849,516
9.85,521
9.851,520
9.852,519
9.853,515
9.854,513
9.855,510
9.856,510
9.857,509
9.858,507
9.859,505
9.86,503
9.861,505
9.862,508
9.863,505
9.864,495
9.865,483
9.866,475
9.867,467
9.868,464
9.869,466
9.87,469
9.871,472
9.872,481
9.873,489
9.874,496
9.875,502
9.876,506
9.877,507
9.878,503
9.879,496
9.88,489
9.881,487
9.882,484
9.883,479
9.884,474
9.885,472
9.886,473
9.887,473
9.888,473
9.889,472
9.89,471
9.891,472
9.892,470
9.893,472
9.894,473
9.895,472
9.896,472
9.897,469
9.898,467
9.899,471
9.9,474
9.901,475
9.902,472
9.903,471
9.904,472
9.905,473
9.906,474
9.907,472
9.908,468
9.909,464
9.91,467
9.911,468
9.912,469
9.913,472
9.914,470
9.915,467
9.916,466
9.917,469
9.918,476
9.919,481
9.92,480
9.921,478
9.922,481
9.923,487
9.924,489
9.925,490
9.926,487
9.927,483
9.928,483
9.929,482
9.93,480
9.931,478
9.932,484
9.933,485
9.934,480
9.935,474
9.936,471
9.937,475
9.938,478
9.939,481
9.94,481
9.941,479
9.942,476
9.943,476
9.944,475
9.945,473
9.946,479
9.947,484
9.948,487
9.949,491
9.95,494
9.951,500
9.952,502
9.953,500
9.954,495
9.955,488
9.956,485
9.957,486
9.958,488
9.959,486
9.96,482
9.961,480
9.962,488
9.963,496
9.964,498
9.965,497
9.966,496
9.967,495
9.968,497
9.969,493
9.97,491
9.971,492
9.972,494
9.973,495
9.974,489
9.975,483
9.976,481
9.977,483
9.978,480
9.979,476
9.98,480
9.981,489
9.982,496
9.983,497
9.984,496
9.985,496
9.986,496
9.987,496
9.988,494
9.989,495
9.99,496
9.991,497
9.992,498
9.993,497
9.994,492
9.995,484
9.996,480
9.997,481
9.998,483
9.999,485
10.0,492
10.001,497
10.002,501
10.003,502
10.004,500
10.005,499
10.006,500
10.007,502
10.008,500
10.009,496
10.01,492
10.011,487
10.012,490
10.013,498
10.014,504
10.015,505
10.016,502
10.017,499
10.018,499
10.019,503
10.02,504
10.021,504
10.022,505
10.023,505
10.024,504
10.025,502
10.026,503
10.027,499
10.028,494
10.029,492
10.03,490
10.031,491
10.032,494
10.033,498
10.034,504
10.035,510
10.036,506
10.037,499
10.038,496
10.039,497
10.04,497
10.041,496
10.042,496
10.043,498
10.044,502
10.045,507
10.046,507
10.047,507
10.048,510
10.049,517
10.05,521
10.051,517
10.052,513
10.053,510
10.054,503
10.055,497
10.056,496
10.057,495
10.058,492
10.059,491
10.06,496
10.061,497
10.062,495
10.063,496
10.064,499
10.065,503
10.066,507
10.067,506
10.068,504
10.069,503
10.07,504
10.071,508
10.072,513
10.073,516
10.074,515
10.075,518
10.076,528
10.077,537
10.078,537
10.079,531
10.08,523
10.081,521
10.082,522
10.083,520
10.084,519
10.085,522
10.086,525
10.087,525
10.088,525
10.089,526
10.09,527
10.091,523
10.092,524
10.093,526
10.094,526
10.095,523
10.096,524
10.097,520
10.098,516
10.099,521
10.1,524
10.101,522
10.102,522
10.103,522
10.104,522
10.105,522
10.106,518
10.107,518
10.108,520
10.109,519
10.11,518
10.111,517
10.112,514
10.113,510
10.114,503
10.115,500
10.116,498
10.117,500
10.118,500
10.119,497
10.12,492
10.121,484
10.122,483
10.123,485
10.124,489
10.125,493
10.126,495
10.127,495
10.128,493
10.129,493
10.13,494
10.131,489
10.132,485
10.133,483
10.134,477
10.135,471
10.136,467
10.137,476
10.138,488
10.139,494
10.14,498
10.141,502
10.142,503
10.143,504
10.144,506
10.145,503
10.146,497
10.147,494
10.148,498
10.149,496
10.15,490
10.151,486
10.152,487
10.153,490
10.154,489
10.155,492
10.156,501
10.157,509
10.158,511
10.159,512
10.16,506
10.161,505
10.162,506
10.163,503
10.164,500
10.165,500
10.166,500
10.167,497
10.168,490
10.169,483
10.17,486
10.171,498
10.172,506
10.173,501
10.174,499
10.175,500
10.176,503
10.177,504
10.178,502
10.179,500
10.18,500
10.181,501
10.182,499
10.183,496
10.184,495
10.185,495
10.186,492
10.187,491
10.188,496
10.189,502
10.19,500
10.191,499
10.192,502
10.193,504
10.194,505
10.195,509
10.196,512
10.197,522
10.198,534
10.199,548
10.2,565
10.201,583
10.202,598
10.203,612
10.204,630
10.205,645
10.206,659
10.207,675
10.208,696
10.209,711
10.21,727
10.211,736
10.212,750
10.213,761
10.214,769
10.215,778
10.216,791
10.217,793
10.218,795
10.219,792
10.22,784
10.221,769
10.222,750
10.223,725
10.224,696
10.225,667
10.226,625
10.227,580
10.228,536
10.229,488
10.23,440
10.231,399
10.232,365
10.233,338
10.234,319
10.235,302
10.236,286
10.237,271
10.238,264
10.239,262
10.24,260
10.241,257
10.242,257
10.243,259
10.244,263
10.245,271
10.246,283
10.247,293
10.248,297
10.249,300
10.25,315
10.251,333
10.252,345
10.253,358
10.254,367
10.255,378
10.256,387
10.257,399
10.258,412
10.259,417
10.26,421
10.261,428
10.262,440
10.263,455
10.264,468
10.265,471
10.266,479
10.267,490
10.268,499
10.269,499
10.27,500
10.271,502
10.272,503
10.273,507
10.274,505
10.275,505
10.276,508
10.277,514
10.278,510
10.279,513
10.28,512
10.281,507
10.282,510
10.283,513
10.284,510
10.285,507
10.286,505
10.287,504
10.288,500
10.289,500
10.29,509
10.291,514
10.292,516
10.293,515
10.294,514
10.295,513
10.296,514
10.297,510
10.298,505
10.299,504
10.3,507
10.301,510
10.302,510
10.303,508
10.304,504
10.305,502
10.306,504
10.307,511
10.308,519
10.309,519
10.31,518
10.311,521
10.312,525
10.313,531
10.314,534
10.315,534
10.316,531
10.317,529
10.318,524
10.319,521
10.32,519
10.321,520
10.322,523
10.323,524
10.324,526
10.325,525
10.326,523
10.327,521
10.328,523
10.329,523
10.33,519
10.331,513
10.332,512
10.333,512
10.334,512
10.335,514
10.336,520
10.337,528
10.338,529
10.339,528
10.34,530
10.341,526
10.342,527
10.343,532
10.344,535
10.345,537
10.346,537
10.347,534
10.348,532
10.349,529
10.35,526
10.351,524
10.352,521
10.353,519
10.354,519
10.355,524
10.356,531
10.357,534
10.358,538
10.359,538
10.36,539
10.361,536
10.362,537
10.363,541
10.364,541
10.365,540
10.366,543
10.367,547
10.368,550
10.369,550
10.37,547
10.371,542
10.372,540
10.373,543
10.374,544
10.375,547
10.376,549
10.377,549
10.378,546
10.379,535
10.38,527
10.381,524
10.382,526
10.383,529
10.384,539
10.385,545
10.386,547
10.387,544
10.388,548
10.389,555
10.39,561
10.391,566
10.392,568
10.393,567
10.394,563
10.395,563
10.396,567
10.397,570
10.398,573
10.399,576
10.4,578
10.401,578
10.402,572
10.403,569
10.404,568
10.405,572
10.406,577
10.407,583
10.408,587
10.409,588
10.41,589
10.411,587
10.412,583
10.413,580
10.414,581
10.415,581
10.416,579
10.417,575
10.418,571
10.419,571
10.42,577
10.421,580
10.422,581
10.423,579
10.424,579
10.425,581
10.426,579
10.427,578
10.428,582
10.429,583
10.43,583
10.431,582
10.432,578
10.433,575
10.434,580
10.435,577
10.436,569
10.437,567
10.438,564
10.439,562
10.44,562
10.441,561
10.442,562
10.443,558
10.444,553
10.445,551
10.446,548
10.447,542
10.448,536
10.449,529
10.45,524
10.451,519
10.452,520
10.453,522
10.454,525
10.455,527
10.456,527
10.457,525
10.458,519
10.459,516
10.46,519
10.461,522
10.462,517
10.463,505
10.464,501
10.465,502
10.466,504
10.467,505
10.468,505
10.469,505
10.47,508
10.471,504
10.472,498
10.473,494
10.474,488
10.475,482
10.476,479
10.477,477
10.478,473
10.479,472
10.48,476
10.481,480
10.482,476
10.483,472
10.484,471
10.485,468
10.486,467
10.487,464
10.488,461
10.489,461
10.49,460
10.491,460
10.492,465
10.493,471
10.494,473
10.495,472
10.496,472
10.497,473
10.498,468
10.499,463
10.5,460
10.501,461
10.502,464
10.503,464
10.504,465
10.505,464
10.506,463
10.507,467
10.508,470
10.509,467
10.51,464
10.511,465
10.512,467
10.513,467
10.514,462
10.515,461
10.516,457
10.517,456
10.518,458
10.519,461
10.52,468
10.521,472
10.522,472
10.523,474
10.524,473
10.525,473
10.526,471
10.527,472
10.528,476
10.529,478
10.53,481
10.531,482
10.532,480
10.533,478
10.534,477
10.535,475
10.536,472
10.537,470
10.538,468
10.539,469
10.54,471
10.541,469
10.542,465
10.543,464
10.544,462
10.545,462
10.546,462
10.547,467
10.548,476
10.549,478
10.55,478
10.551,479
10.552,480
10.553,480
10.554,481
10.555,485
10.556,488
10.557,489
10.558,487
10.559,486
10.56,484
10.561,482
10.562,481
10.563,485
10.564,487
10.565,488
10.566,488
10.567,481
10.568,475
10.569,468
10.57,463
10.571,464
10.572,467
10.573,468
10.574,471
10.575,475
10.576,479
10.577,483
10.578,485
10.579,486
10.58,483
10.581,481
10.582,489
10.583,496
10.584,500
10.585,503
10.586,502
10.587,503
10.588,504
10.589,506
10.59,506
10.591,502
10.592,498
10.593,496
10.594,498
10.595,502
10.596,504
10.597,506
10.598,505
10.599,500
10.6,496
10.601,499
10.602,504
10.603,503
10.604,499
10.605,497
10.606,497
10.607,496
10.608,490
10.609,485
10.61,484
10.611,486
10.612,483
10.613,479
10.614,479
10.615,482
10.616,491
10.617,497
10.618,500
10.619,505
10.62,508
10.621,508
10.622,508
10.623,507
10.624,500
10.625,495
10.626,494
10.627,494
10.628,496
10.629,500
10.63,506
10.631,505
10.632,505
10.633,508
10.634,505
10.635,502
10.636,500
10.637,501
10.638,499
10.639,495
10.64,489
10.641,488
10.642,496
10.643,496
10.644,492
10.645,488
10.646,490
10.647,493
10.648,495
10.649,498
10.65,499
10.651,497
10.652,496
10.653,497
10.654,496
10.655,497
10.656,500
10.657,502
10.658,505
10.659,510
10.66,511
10.661,510
10.662,510
10.663,508
10.664,504
10.665,500
10.666,500
10.667,502
10.668,507
10.669,512
10.67,514
10.671,511
10.672,509
10.673,510
10.674,507
10.675,505
10.676,504
10.677,503
10.678,503
10.679,502
10.68,501
10.681,499
10.682,493
10.683,489
10.684,488
10.685,491
10.686,495
10.687,497
10.688,499
10.689,504
10.69,506
10.691,508
10.692,508
10.693,505
10.694,504
10.695,505
10.696,504
10.697,506
10.698,510
10.699,515
10.7,522
10.701,527
10.702,529
10.703,530
10.704,536
10.705,537
10.706,536
10.707,536
10.708,535
10.709,534
10.71,532
10.711,525
10.712,514
10.713,511
10.714,509
10.715,508
10.716,508
10.717,509
10.718,512
10.719,514
10.72,518
10.721,520
10.722,523
10.723,527
10.724,533
10.725,534
10.726,531
10.727,526
10.728,518
10.729,512
10.73,508
10.731,505
10.732,504
10.733,502
10.734,501
10.735,503
10.736,505
10.737,505
10.738,502
10.739,498
10.74,496
10.741,496
10.742,498
10.743,495
10.744,492
10.745,487
10.746,486
10.747,484
10.748,481
10.749,482
10.75,484
10.751,482
10.752,479
10.753,477
10.754,477
10.755,482
10.756,488
10.757,491
10.758,495
10.759,496
10.76,499
10.761,500
10.762,498
10.763,491
10.764,486
10.765,486
10.766,484
10.767,484
10.768,487
10.769,489
10.77,487
10.771,486
10.772,486
10.773,488
10.774,493
10.775,495
10.776,496
10.777,499
10.778,498
10.779,497
10.78,497
10.781,502
10.782,507
10.783,508
10.784,503
10.785,503
10.786,504
10.787,505
10.788,504
10.789,497
10.79,492
10.791,490
10.792,492
10.793,498
10.794,501
10.795,500
10.796,498
10.797,499
10.798,497
10.799,496
10.8,493
10.801,493
10.802,492
10.803,487
10.804,486
10.805,486
10.806,486
10.807,492
10.808,494
10.809,496
10.81,496
10.811,496
10.812,497
10.813,496
10.814,496
10.815,499
10.816,499
10.817,501
10.818,512
10.819,526
10.82,539
10.821,558
10.822,577
10.823,594
10.824,614
10.825,631
10.826,648
10.827,662
10.828,673
10.829,689
10.83,700
10.831,710
10.832,721
10.833,736
10.834,751
10.835,763
10.836,775
10.837,786
10.838,791
10.839,785
10.84,774
10.841,758
10.842,739
10.843,722
10.844,700
10.845,670
10.846,637
10.847,599
10.848,553
10.849,500
10.85,455
10.851,408
10.852,364
10.853,331
10.854,311
10.855,289
10.856,273
10.857,265
10.858,261
10.859,257
10.86,249
10.861,246
10.862,242
10.863,238
10.864,236
10.865,238
10.866,246
10.867,257
10.868,268
10.869,283
10.87,297
10.871,310
10.872,324
10.873,339
10.874,354
10.875,371
10.876,382
10.877,395
10.878,409
10.879,422
10.88,434
10.881,444
10.882,451
10.883,459
10.884,467
10.885,471
10.886,475
10.887,476
10.888,477
10.889,480
10.89,486
10.891,492
10.892,496
10.893,504
10.894,508
10.895,508
10.896,509
10.897,510
10.898,508
10.899,504
10.9,513
10.901,520
10.902,521
10.903,524
10.904,524
10.905,523
10.906,524
10.907,522
10.908,520
10.909,517
10.91,519
10.911,518
10.912,521
10.913,527
10.914,530
10.915,526
10.916,518
10.917,515
10.918,511
10.919,508
10.92,511
10.921,515
10.922,516
10.923,515
10.924,516
10.925,517
10.926,519
10.927,521
10.928,521
10.929,521
10.93,521
10.931,526
10.932,532
10.933,534
10.934,534
10.935,532
10.936,531
10.937,535
10.938,538
10.939,538
10.94,536
10.941,531
10.942,527
10.943,521
10.944,521
10.945,526
10.946,529
10.947,530
10.948,531
10.949,529
10.95,528
10.951,527
10.952,526
10.953,524
10.954,524
10.955,526
10.956,527
10.957,531
10.958,536
10.959,537
10.96,537
10.961,534
10.962,531
10.963,527
10.964,525
10.965,522
10.966,515
10.967,513
10.968,513
10.969,516
10.97,524
10.971,536
10.972,545
10.973,554
10.974,557
10.975,555
10.976,548
10.977,545
10.978,543
10.979,542
10.98,539
10.981,536
10.982,536
10.983,534
10.984,532
10.985,534
10.986,534
10.987,531
10.988,526
10.989,524
10.99,529
10.991,535
10.992,537
10.993,536
10.994,541
10.995,546
10.996,552
10.997,557
10.998,556
10.999,555
11.0,558
11.001,562
11.002,566
11.003,563
11.004,561
11.005,561
11.006,560
11.007,562
11.008,561
11.009,561
11.01,560
11.011,561
11.012,567
11.013,570
11.014,572
11.015,569
11.016,568
11.017,560
11.018,560
11.019,564
11.02,567
11.021,566
11.022,568
11.023,574
11.024,575
11.025,573
11.026,572
11.027,576
11.028,581
11.029,581
11.03,581
11.031,579
11.032,581
11.033,585
11.034,586
11.035,582
11.036,579
11.037,580
11.038,584
11.039,585
11.04,583
11.041,581
11.042,580
11.043,579
11.044,577
11.045,576
11.046,577
11.047,575
11.048,574
11.049,572
11.05,573
11.051,575
11.052,576
11.053,577
11.054,575
11.055,577
11.056,583
11.057,588
11.058,587
11.059,584
11.06,581
11.061,574
11.062,568
11.063,562
11.064,559
11.065,558
11.066,559
11.067,557
11.068,555
11.069,553
11.07,548
11.071,544
11.072,541
11.073,538
11.074,533
11.075,527
11.076,525
11.077,522
11.078,516
11.079,510
11.08,509
11.081,508
11.082,511
11.083,514
11.084,511
11.085,506
11.086,502
11.087,501
11.088,500
11.089,497
11.09,498
11.091,503
11.092,501
11.093,496
11.094,500
11.095,499
11.096,495
11.097,494
11.098,491
11.099,489
11.1,487
11.101,486
11.102,482
11.103,475
11.104,470
11.105,466
11.106,460
11.107,457
11.108,459
11.109,456
11.11,455
11.111,452
11.112,451
11.113,449
11.114,442
11.115,440
11.116,444
11.117,449
11.118,458
11.119,469
11.12,475
11.121,473
11.122,468
11.123,465
11.124,469
11.125,470
11.126,469
11.127,467
11.128,465
11.129,464
11.13,468
11.131,465
11.132,459
11.133,457
11.134,463
11.135,466
11.136,466
11.137,464
11.138,461
11.139,457
11.14,457
11.141,456
11.142,456
11.143,454
11.144,454
11.145,459
11.146,465
11.147,473
11.148,475
11.149,473
11.15,472
11.151,472
11.152,469
11.153,468
11.154,468
11.155,470
11.156,471
11.157,472
11.158,474
11.159,475
11.16,472
11.161,473
11.162,475
11.163,481
11.164,483
11.165,481
11.166,480
11.167,476
11.168,474
11.169,475
11.17,479
11.171,481
11.172,481
11.173,478
11.174,479
11.175,479
11.176,472
11.177,465
11.178,463
11.179,467
11.18,473
11.181,480
11.182,484
11.183,485
11.184,486
11.185,490
11.186,492
11.187,491
11.188,489
11.189,486
11.19,485
11.191,485
11.192,484
11.193,484
11.194,488
11.195,486
11.196,482
11.197,485
11.198,484
11.199,476
11.2,471
11.201,470
11.202,470
11.203,474
11.204,476
11.205,478
11.206,482
11.207,491
11.208,489
11.209,487
11.21,491
11.211,496
11.212,501
11.213,500
11.214,501
11.215,499
11.216,495
11.217,502
11.218,508
11.219,507
11.22,505
11.221,503
11.222,504
11.223,501
11.224,497
11.225,496
11.226,496
11.227,492
11.228,488
11.229,485
11.23,487
11.231,492
11.232,497
11.233,498
11.234,499
11.235,500
11.236,504
11.237,502
11.238,504
11.239,500
11.24,492
11.241,489
11.242,492
11.243,495
11.244,492
11.245,489
11.246,492
11.247,498
11.248,498
11.249,496
11.25,496
11.251,497
11.252,497
11.253,496
11.254,495
11.255,495
11.256,493
11.257,490
11.258,490
11.259,491
11.26,490
11.261,491
11.262,491
11.263,491
11.264,494
11.265,499
11.266,507
11.267,508
11.268,506
11.269,505
11.27,500
11.271,496
11.272,493
11.273,494
11.274,495
11.275,499
11.276,503
11.277,505
11.278,504
11.279,500
11.28,492
11.281,487
11.282,485
11.283,488
11.284,493
11.285,498
11.286,503
11.287,504
11.288,504
11.289,499
11.29,492
11.291,495
11.292,503
11.293,508
11.294,513
11.295,516
11.296,518
11.297,516
11.298,513
11.299,512
11.3,510
11.301,512
11.302,513
11.303,510
11.304,504
11.305,501
11.306,499
11.307,505
11.308,508
11.309,511
11.31,511
11.311,507
11.312,507
11.313,511
11.314,513
11.315,514
11.316,515
11.317,512
11.318,513
11.319,507
11.32,505
11.321,508
11.322,510
11.323,513
11.324,518
11.325,520
11.326,520
11.327,521
11.328,516
11.329,515
11.33,512
11.331,512
11.332,516
11.333,524
11.334,526
11.335,523
11.336,518
11.337,514
11.338,514
11.339,519
11.34,522
11.341,521
11.342,521
11.343,513
11.344,506
11.345,502
11.346,495
11.347,499
11.348,502
11.349,501
11.35,501
11.351,502
11.352,504
11.353,502
11.354,502
11.355,504
11.356,504
11.357,506
11.358,507
11.359,504
11.36,502
11.361,499
11.362,493
11.363,488
11.364,489
11.365,494
11.366,496
11.367,496
11.368,496
11.369,489
11.37,483
11.371,480
11.372,480
11.373,483
11.374,484
11.375,485
11.376,481
11.377,478
11.378,483
11.379,489
11.38,491
11.381,491
11.382,491
11.383,492
11.384,492
11.385,492
11.386,494
11.387,494
11.388,493
11.389,496
11.39,497
11.391,496
11.392,492
11.393,487
11.394,486
11.395,486
11.396,489
11.397,494
11.398,500
11.399,506
11.4,505
11.401,502
11.402,499
11.403,499
11.404,496
11.405,495
11.406,491
11.407,495
11.408,493
11.409,487
11.41,490
11.411,495
11.412,499
11.413,495
11.414,492
11.415,494
11.416,491
11.417,492
11.418,502
11.419,507
11.42,510
11.421,510
11.422,510
11.423,506
11.424,501
11.425,499
11.426,502
11.427,503
11.428,500
11.429,496
11.43,494
11.431,492
11.432,493
11.433,497
11.434,501
11.435,502
11.436,505
11.437,513
11.438,526
11.439,543
11.44,561
11.441,578
11.442,595
11.443,610
11.444,626
11.445,647
11.446,665
11.447,681
11.448,700
11.449,713
11.45,722
11.451,736
11.452,750
11.453,765
11.454,775
11.455,779
11.456,787
11.457,794
11.458,799
11.459,792
11.46,778
11.461,766
11.462,747
11.463,720
11.464,697
11.465,673
11.466,639
11.467,595
11.468,543
11.469,492
11.47,444
11.471,401
11.472,367
11.473,341
11.474,316
11.475,301
11.476,290
11.477,281
11.478,275
11.479,268
11.48,260
11.481,259
11.482,262
11.483,264
11.484,265
11.485,271
11.486,287
11.487,302
11.488,312
11.489,320
11.49,325
11.491,338
11.492,352
11.493,364
11.494,377
11.495,391
11.496,404
11.497,408
11.498,415
11.499,430
11.5,444
11.501,460
11.502,471
11.503,478
11.504,484
11.505,484
11.506,488
11.507,492
11.508,492
11.509,496
11.51,504
11.511,509
11.512,510
11.513,508
11.514,505
11.515,503
11.516,499
11.517,498
11.518,499
11.519,503
11.52,504
11.521,501
11.522,504
11.523,507
11.524,507
11.525,507
11.526,508
11.527,511
11.528,511
11.529,511
11.53,510
11.531,508
11.532,508
11.533,510
11.534,512
11.535,512
11.536,515
11.537,516
11.538,515
11.539,520
11.54,522
11.541,520
11.542,519
11.543,523
11.544,524
11.545,520
11.546,516
11.547,512
11.548,510
11.549,510
11.55,510
11.551,510
11.552,510
11.553,515
11.554,519
11.555,519
11.556,520
11.557,519
11.558,516
11.559,517
11.56,519
11.561,519
11.562,520
11.563,521
11.564,520
11.565,517
11.566,521
11.567,523
11.568,521
11.569,523
11.57,518
11.571,510
11.572,508
11.573,509
11.574,518
11.575,524
11.576,525
11.577,527
11.578,527
11.579,526
11.58,525
11.581,523
11.582,519
11.583,516
11.584,518
11.585,519
11.586,519
11.587,524
11.588,527
11.589,526
11.59,528
11.591,530
11.592,531
11.593,531
11.594,532
11.595,532
11.596,527
11.597,530
11.598,532
11.599,532
11.6,533
11.601,535
11.602,536
11.603,533
11.604,531
11.605,531
11.606,531
11.607,534
11.608,532
11.609,529
11.61,528
11.611,526
11.612,527
11.613,533
11.614,542
11.615,549
11.616,551
11.617,549
11.618,544
11.619,540
11.62,537
11.621,537
11.622,536
11.623,531
11.624,529
11.625,531
11.626,535
11.627,537
11.628,537
11.629,541
11.63,548
11.631,554
11.632,558
11.633,560
11.634,563
11.635,563
11.636,569
11.637,570
11.638,570
11.639,574
11.64,571
11.641,565
11.642,558
11.643,556
11.644,556
11.645,559
11.646,560
11.647,562
11.648,561
11.649,561
11.65,566
11.651,570
11.652,573
11.653,573
11.654,571
11.655,571
11.656,573
11.657,575
11.658,580
11.659,585
11.66,583
11.661,578
11.662,577
11.663,580
11.664,586
11.665,586
11.666,585
11.667,577
11.668,573
11.669,569
11.67,563
11.671,559
11.672,556
11.673,558
11.674,557
11.675,553
11.676,554
11.677,553
11.678,555
11.679,561
11.68,567
11.681,572
11.682,574
11.683,574
11.684,570
11.685,564
11.686,560
11.687,560
11.688,556
11.689,545
11.69,541
11.691,541
11.692,544
11.693,537
11.694,531
11.695,526
11.696,525
11.697,527
11.698,535
11.699,544
11.7,544
11.701,537
11.702,530
11.703,529
11.704,524
11.705,517
11.706,513
11.707,511
11.708,505
11.709,498
11.71,497
11.711,497
11.712,500
11.713,505
11.714,509
11.715,510
11.716,503
11.717,499
11.718,497
11.719,492
11.72,486
11.721,485
11.722,482
11.723,480
11.724,481
11.725,481
11.726,478
11.727,475
11.728,472
11.729,474
11.73,473
11.731,476
11.732,482
11.733,486
11.734,488
11.735,487
11.736,474
11.737,465
11.738,458
11.739,449
11.74,448
11.741,448
11.742,450
11.743,448
11.744,454
11.745,462
11.746,465
11.747,468
11.748,471
11.749,474
11.75,476
11.751,475
11.752,471
11.753,465
11.754,462
11.755,458
11.756,457
11.757,457
11.758,460
11.759,461
11.76,467
11.761,474
11.762,475
11.763,477
11.764,479
11.765,483
11.766,483
11.767,486
11.768,485
11.769,480
11.77,475
11.771,467
11.772,464
11.773,460
11.774,456
11.775,454
11.776,454
11.777,457
11.778,463
11.779,466
11.78,467
11.781,475
11.782,482
11.783,487
11.784,493
11.785,495
11.786,490
11.787,488
11.788,489
11.789,484
11.79,479
11.791,475
11.792,476
11.793,481
11.794,479
11.795,476
11.796,473
11.797,475
11.798,475
11.799,473
11.8,477
11.801,484
11.802,488
11.803,494
11.804,502
11.805,505
11.806,504
11.807,499
11.808,497
11.809,495
11.81,496
11.811,495
11.812,493
11.813,488
11.814,488
11.815,486
11.816,485
11.817,484
11.818,479
11.819,480
11.82,482
11.821,481
11.822,480
11.823,479
11.824,480
11.825,486
11.826,492
11.827,499
11.828,501
11.829,501
11.83,500
11.831,498
11.832,495
11.833,495
11.834,495
11.835,496
11.836,497
11.837,495
11.838,493
11.839,489
11.84,486
11.841,487
11.842,488
11.843,486
11.844,485
11.845,487
11.846,488
11.847,487
11.848,488
11.849,490
11.85,494
11.851,494
11.852,491
11.853,494
11.854,503
11.855,508
11.856,509
11.857,511
11.858,515
11.859,517
11.86,514
11.861,507
11.862,500
11.863,496
11.864,495
11.865,499
11.866,497
11.867,500
11.868,504
11.869,505
11.87,505
11.871,503
11.872,499
11.873,499
11.874,502
11.875,501
11.876,500
11.877,493
11.878,486
11.879,485
11.88,485
11.881,487
11.882,494
11.883,498
11.884,502
11.885,505
11.886,506
11.887,504
11.888,505
11.889,511
11.89,509
11.891,502
11.892,494
11.893,485
11.894,478
11.895,474
11.896,478
11.897,488
11.898,497
11.899,499
11.9,500
11.901,510
11.902,518
11.903,515
11.904,515
11.905,517
11.906,513
11.907,509
11.908,506
11.909,505
11.91,505
11.911,507
11.912,510
11.913,512
11.914,513
11.915,511
11.916,511
11.917,509
11.918,508
11.919,508
11.92,511
11.921,518
11.922,516
11.923,511
11.924,508
11.925,501
11.926,498
11.927,495
11.928,493
11.929,490
11.93,491
11.931,496
11.932,495
11.933,493
11.934,494
11.935,499
11.936,503
