# OpenSignals Text File Format. Version 1
# {"98:D3:81:FD:6D:86": {"position": 0, "device": "bitalino_rev", "device name": "98:D3:81:FD:6D:86", "device connection": "BTH98:D3:81:FD:6D:86", "sampling rate": 1000, "resolution": [4, 1, 1, 1, 1, 10], "firmware version": 1282, "comments": "", "keywords": "", "mode": 0, "sync interval": 2, "date": "2024-4-19", "time": "12:18:22.595", "channels": [2], "sensor": ["ECGBIT"], "label": ["A2"], "column": ["nSeq", "I1", "I2", "O1", "O2", "A2"], "special": [{}], "digital IO": [0, 0, 1, 1]}}
# EndOfHeader
0	0	0	0	0	511	
1	0	0	0	0	506	
2	0	0	0	0	506	
3	0	0	0	0	509	
4	0	0	0	0	505	
5	0	0	0	0	505	
6	0	0	0	0	510	
7	0	0	0	0	515	
8	0	0	0	0	519	
9	0	0	0	0	520	
10	0	0	0	0	518	
11	0	0	0	0	509	
12	0	0	0	0	505	
13	0	0	0	0	509	
14	0	0	0	0	511	
15	0	0	0	0	512	
0	0	0	0	0	516	
1	0	0	0	0	521	
2	0	0	0	0	525	
3	0	0	0	0	529	
4	0	0	0	0	538	
5	0	0	0	0	537	
6	0	0	0	0	523	
7	0	0	0	0	512	
8	0	0	0	0	510	
9	0	0	0	0	511	
10	0	0	0	0	509	
11	0	0	0	0	505	
12	0	0	0	0	508	
13	0	0	0	0	511	
14	0	0	0	0	513	
15	0	0	0	0	515	
0	0	0	0	0	519	
1	0	0	0	0	519	
2	0	0	0	0	518	
3	0	0	0	0	520	
4	0	0	0	0	519	
5	0	0	0	0	515	
6	0	0	0	0	515	
7	0	0	0	0	521	
8	0	0	0	0	515	
9	0	0	0	0	512	
10	0	0	0	0	505	
11	0	0	0	0	503	
12	0	0	0	0	504	
13	0	0	0	0	509	
14	0	0	0	0	513	
15	0	0	0	0	515	
0	0	0	0	0	517	
1	0	0	0	0	518	
2	0	0	0	0	519	
3	0	0	0	0	519	
4	0	0	0	0	515	
5	0	0	0	0	512	
6	0	0	0	0	516	
7	0	0	0	0	523	
8	0	0	0	0	528	
9	0	0	0	0	532	
10	0	0	0	0	539	
11	0	0	0	0	538	
12	0	0	0	0	529	
13	0	0	0	0	515	
14	0	0	0	0	511	
15	0	0	0	0	507	
0	0	0	0	0	508	
1	0	0	0	0	514	
2	0	0	0	0	517	
3	0	0	0	0	519	
4	0	0	0	0	521	
5	0	0	0	0	526	
6	0	0	0	0	536	
7	0	0	0	0	543	
8	0	0	0	0	542	
9	0	0	0	0	534	
10	0	0	0	0	529	
11	0	0	0	0	525	
12	0	0	0	0	520	
13	0	0	0	0	515	
14	0	0	0	0	506	
15	0	0	0	0	505	
0	0	0	0	0	515	
1	0	0	0	0	524	
2	0	0	0	0	520	
3	0	0	0	0	519	
4	0	0	0	0	524	
5	0	0	0	0	528	
6	0	0	0	0	528	
7	0	0	0	0	526	
8	0	0	0	0	524	
9	0	0	0	0	518	
10	0	0	0	0	524	
11	0	0	0	0	527	
12	0	0	0	0	523	
13	0	0	0	0	521	
14	0	0	0	0	525	
15	0	0	0	0	532	
0	0	0	0	0	538	
1	0	0	0	0	536	
2	0	0	0	0	537	
3	0	0	0	0	535	
4	0	0	0	0	532	
5	0	0	0	0	534	
6	0	0	0	0	533	
7	0	0	0	0	530	
8	0	0	0	0	534	
9	0	0	0	0	541	
10	0	0	0	0	545	
11	0	0	0	0	543	
12	0	0	0	0	545	
13	0	0	0	0	552	
14	0	0	0	0	549	
15	0	0	0	0	539	
0	0	0	0	0	532	
1	0	0	0	0	537	
2	0	0	0	0	536	
3	0	0	0	0	545	
4	0	0	0	0	557	
5	0	0	0	0	556	
6	0	0	0	0	551	
7	0	0	0	0	550	
8	0	0	0	0	548	
9	0	0	0	0	545	
10	0	0	0	0	547	
11	0	0	0	0	551	
12	0	0	0	0	549	
13	0	0	0	0	547	
14	0	0	0	0	547	
15	0	0	0	0	547	
0	0	0	0	0	545	
1	0	0	0	0	543	
2	0	0	0	0	545	
3	0	0	0	0	546	
4	0	0	0	0	546	
5	0	0	0	0	547	
6	0	0	0	0	547	
7	0	0	0	0	551	
8	0	0	0	0	553	
9	0	0	0	0	555	
10	0	0	0	0	553	
11	0	0	0	0	555	
12	0	0	0	0	564	
13	0	0	0	0	566	
14	0	0	0	0	562	
15	0	0	0	0	563	
0	0	0	0	0	570	
1	0	0	0	0	568	
2	0	0	0	0	560	
3	0	0	0	0	555	
4	0	0	0	0	553	
5	0	0	0	0	556	
6	0	0	0	0	560	
7	0	0	0	0	560	
8	0	0	0	0	559	
9	0	0	0	0	552	
10	0	0	0	0	547	
11	0	0	0	0	547	
12	0	0	0	0	541	
13	0	0	0	0	539	
14	0	0	0	0	535	
15	0	0	0	0	527	
0	0	0	0	0	526	
1	0	0	0	0	531	
2	0	0	0	0	533	
3	0	0	0	0	534	
4	0	0	0	0	537	
5	0	0	0	0	539	
6	0	0	0	0	542	
7	0	0	0	0	542	
8	0	0	0	0	545	
9	0	0	0	0	546	
10	0	0	0	0	546	
11	0	0	0	0	543	
12	0	0	0	0	542	
13	0	0	0	0	536	
14	0	0	0	0	531	
15	0	0	0	0	526	
0	0	0	0	0	522	
1	0	0	0	0	519	
2	0	0	0	0	518	
3	0	0	0	0	512	
4	0	0	0	0	506	
5	0	0	0	0	508	
6	0	0	0	0	513	
7	0	0	0	0	516	
8	0	0	0	0	514	
9	0	0	0	0	510	
10	0	0	0	0	508	
11	0	0	0	0	501	
12	0	0	0	0	493	
13	0	0	0	0	496	
14	0	0	0	0	507	
15	0	0	0	0	513	
0	0	0	0	0	510	
1	0	0	0	0	498	
2	0	0	0	0	489	
3	0	0	0	0	491	
4	0	0	0	0	496	
5	0	0	0	0	502	
6	0	0	0	0	504	
7	0	0	0	0	500	
8	0	0	0	0	495	
9	0	0	0	0	490	
10	0	0	0	0	490	
11	0	0	0	0	487	
12	0	0	0	0	483	
13	0	0	0	0	478	
14	0	0	0	0	471	
15	0	0	0	0	470	
0	0	0	0	0	468	
1	0	0	0	0	470	
2	0	0	0	0	470	
3	0	0	0	0	466	
4	0	0	0	0	462	
5	0	0	0	0	459	
6	0	0	0	0	462	
7	0	0	0	0	466	
8	0	0	0	0	469	
9	0	0	0	0	472	
10	0	0	0	0	477	
11	0	0	0	0	481	
12	0	0	0	0	480	
13	0	0	0	0	483	
14	0	0	0	0	488	
15	0	0	0	0	481	
0	0	0	0	0	479	
1	0	0	0	0	478	
2	0	0	0	0	477	
3	0	0	0	0	481	
4	0	0	0	0	477	
5	0	0	0	0	471	
6	0	0	0	0	472	
7	0	0	0	0	470	
8	0	0	0	0	468	
9	0	0	0	0	471	
10	0	0	0	0	472	
11	0	0	0	0	469	
12	0	0	0	0	463	
13	0	0	0	0	456	
14	0	0	0	0	461	
15	0	0	0	0	473	
0	0	0	0	0	478	
1	0	0	0	0	478	
2	0	0	0	0	483	
3	0	0	0	0	482	
4	0	0	0	0	479	
5	0	0	0	0	481	
6	0	0	0	0	479	
7	0	0	0	0	479	
8	0	0	0	0	483	
9	0	0	0	0	485	
10	0	0	0	0	480	
11	0	0	0	0	471	
12	0	0	0	0	469	
13	0	0	0	0	463	
14	0	0	0	0	465	
15	0	0	0	0	479	
0	0	0	0	0	482	
1	0	0	0	0	474	
2	0	0	0	0	469	
3	0	0	0	0	468	
4	0	0	0	0	470	
5	0	0	0	0	473	
6	0	0	0	0	479	
7	0	0	0	0	480	
8	0	0	0	0	480	
9	0	0	0	0	479	
10	0	0	0	0	481	
11	0	0	0	0	484	
12	0	0	0	0	484	
13	0	0	0	0	479	
14	0	0	0	0	474	
15	0	0	0	0	475	
0	0	0	0	0	479	
1	0	0	0	0	480	
2	0	0	0	0	483	
3	0	0	0	0	484	
4	0	0	0	0	484	
5	0	0	0	0	489	
6	0	0	0	0	491	
7	0	0	0	0	488	
8	0	0	0	0	487	
9	0	0	0	0	486	
10	0	0	0	0	483	
11	0	0	0	0	487	
12	0	0	0	0	493	
13	0	0	0	0	497	
14	0	0	0	0	496	
15	0	0	0	0	496	
0	0	0	0	0	495	
1	0	0	0	0	496	
2	0	0	0	0	500	
3	0	0	0	0	499	
4	0	0	0	0	496	
5	0	0	0	0	492	
6	0	0	0	0	485	
7	0	0	0	0	492	
8	0	0	0	0	504	
9	0	0	0	0	508	
10	0	0	0	0	512	
11	0	0	0	0	517	
12	0	0	0	0	513	
13	0	0	0	0	508	
14	0	0	0	0	504	
15	0	0	0	0	497	
0	0	0	0	0	491	
1	0	0	0	0	486	
2	0	0	0	0	479	
3	0	0	0	0	478	
4	0	0	0	0	478	
5	0	0	0	0	482	
6	0	0	0	0	483	
7	0	0	0	0	481	
8	0	0	0	0	484	
9	0	0	0	0	490	
10	0	0	0	0	496	
11	0	0	0	0	504	
12	0	0	0	0	510	
13	0	0	0	0	513	
14	0	0	0	0	507	
15	0	0	0	0	504	
0	0	0	0	0	507	
1	0	0	0	0	503	
2	0	0	0	0	498	
3	0	0	0	0	499	
4	0	0	0	0	502	
5	0	0	0	0	507	
6	0	0	0	0	512	
7	0	0	0	0	512	
8	0	0	0	0	505	
9	0	0	0	0	502	
10	0	0	0	0	504	
11	0	0	0	0	505	
12	0	0	0	0	506	
13	0	0	0	0	505	
14	0	0	0	0	503	
15	0	0	0	0	503	
0	0	0	0	0	502	
1	0	0	0	0	500	
2	0	0	0	0	501	
3	0	0	0	0	502	
4	0	0	0	0	503	
5	0	0	0	0	503	
6	0	0	0	0	499	
7	0	0	0	0	508	
8	0	0	0	0	515	
9	0	0	0	0	517	
10	0	0	0	0	509	
11	0	0	0	0	495	
12	0	0	0	0	480	
13	0	0	0	0	476	
14	0	0	0	0	482	
15	0	0	0	0	485	
0	0	0	0	0	489	
1	0	0	0	0	499	
2	0	0	0	0	504	
3	0	0	0	0	504	
4	0	0	0	0	501	
5	0	0	0	0	496	
6	0	0	0	0	497	
7	0	0	0	0	503	
8	0	0	0	0	505	
9	0	0	0	0	510	
10	0	0	0	0	513	
11	0	0	0	0	510	
12	0	0	0	0	508	
13	0	0	0	0	506	
14	0	0	0	0	506	
15	0	0	0	0	507	
0	0	0	0	0	507	
1	0	0	0	0	510	
2	0	0	0	0	511	
3	0	0	0	0	509	
4	0	0	0	0	507	
5	0	0	0	0	508	
6	0	0	0	0	508	
7	0	0	0	0	506	
8	0	0	0	0	499	
9	0	0	0	0	499	
10	0	0	0	0	510	
11	0	0	0	0	507	
12	0	0	0	0	509	
13	0	0	0	0	509	
14	0	0	0	0	511	
15	0	0	0	0	512	
0	0	0	0	0	510	
1	0	0	0	0	508	
2	0	0	0	0	509	
3	0	0	0	0	515	
4	0	0	0	0	516	
5	0	0	0	0	516	
6	0	0	0	0	512	
7	0	0	0	0	511	
8	0	0	0	0	510	
9	0	0	0	0	515	
10	0	0	0	0	519	
11	0	0	0	0	527	
12	0	0	0	0	531	
13	0	0	0	0	530	
14	0	0	0	0	525	
15	0	0	0	0	513	
0	0	0	0	0	504	
1	0	0	0	0	503	
2	0	0	0	0	504	
3	0	0	0	0	503	
4	0	0	0	0	499	
5	0	0	0	0	502	
6	0	0	0	0	508	
7	0	0	0	0	510	
8	0	0	0	0	513	
9	0	0	0	0	515	
10	0	0	0	0	513	
11	0	0	0	0	519	
12	0	0	0	0	527	
13	0	0	0	0	528	
14	0	0	0	0	519	
15	0	0	0	0	515	
0	0	0	0	0	513	
1	0	0	0	0	507	
2	0	0	0	0	506	
3	0	0	0	0	509	
4	0	0	0	0	508	
5	0	0	0	0	508	
6	0	0	0	0	512	
7	0	0	0	0	514	
8	0	0	0	0	512	
9	0	0	0	0	505	
10	0	0	0	0	505	
11	0	0	0	0	507	
12	0	0	0	0	505	
13	0	0	0	0	499	
14	0	0	0	0	492	
15	0	0	0	0	491	
0	0	0	0	0	501	
1	0	0	0	0	511	
2	0	0	0	0	515	
3	0	0	0	0	513	
4	0	0	0	0	506	
5	0	0	0	0	503	
6	0	0	0	0	500	
7	0	0	0	0	501	
8	0	0	0	0	505	
9	0	0	0	0	504	
10	0	0	0	0	501	
11	0	0	0	0	503	
12	0	0	0	0	507	
13	0	0	0	0	507	
14	0	0	0	0	513	
15	0	0	0	0	515	
0	0	0	0	0	517	
1	0	0	0	0	518	
2	0	0	0	0	515	
3	0	0	0	0	512	
4	0	0	0	0	511	
5	0	0	0	0	518	
6	0	0	0	0	524	
7	0	0	0	0	522	
8	0	0	0	0	519	
9	0	0	0	0	517	
10	0	0	0	0	514	
11	0	0	0	0	517	
12	0	0	0	0	520	
13	0	0	0	0	524	
14	0	0	0	0	529	
15	0	0	0	0	529	
0	0	0	0	0	527	
1	0	0	0	0	527	
2	0	0	0	0	526	
3	0	0	0	0	523	
4	0	0	0	0	526	
5	0	0	0	0	529	
6	0	0	0	0	534	
7	0	0	0	0	542	
8	0	0	0	0	533	
9	0	0	0	0	521	
10	0	0	0	0	516	
11	0	0	0	0	518	
12	0	0	0	0	516	
13	0	0	0	0	506	
14	0	0	0	0	498	
15	0	0	0	0	498	
0	0	0	0	0	498	
1	0	0	0	0	493	
2	0	0	0	0	488	
3	0	0	0	0	483	
4	0	0	0	0	484	
5	0	0	0	0	487	
6	0	0	0	0	492	
7	0	0	0	0	498	
8	0	0	0	0	498	
9	0	0	0	0	492	
10	0	0	0	0	487	
11	0	0	0	0	489	
12	0	0	0	0	495	
13	0	0	0	0	501	
14	0	0	0	0	508	
15	0	0	0	0	505	
0	0	0	0	0	504	
1	0	0	0	0	503	
2	0	0	0	0	501	
3	0	0	0	0	497	
4	0	0	0	0	492	
5	0	0	0	0	491	
6	0	0	0	0	495	
7	0	0	0	0	494	
8	0	0	0	0	498	
9	0	0	0	0	505	
10	0	0	0	0	511	
11	0	0	0	0	507	
12	0	0	0	0	497	
13	0	0	0	0	491	
14	0	0	0	0	491	
15	0	0	0	0	488	
0	0	0	0	0	491	
1	0	0	0	0	494	
2	0	0	0	0	499	
3	0	0	0	0	504	
4	0	0	0	0	502	
5	0	0	0	0	496	
6	0	0	0	0	494	
7	0	0	0	0	497	
8	0	0	0	0	506	
9	0	0	0	0	510	
10	0	0	0	0	510	
11	0	0	0	0	505	
12	0	0	0	0	499	
13	0	0	0	0	495	
14	0	0	0	0	494	
15	0	0	0	0	495	
0	0	0	0	0	494	
1	0	0	0	0	497	
2	0	0	0	0	498	
3	0	0	0	0	496	
4	0	0	0	0	494	
5	0	0	0	0	494	
6	0	0	0	0	494	
7	0	0	0	0	499	
8	0	0	0	0	506	
9	0	0	0	0	511	
10	0	0	0	0	512	
11	0	0	0	0	509	
12	0	0	0	0	504	
13	0	0	0	0	504	
14	0	0	0	0	506	
15	0	0	0	0	505	
0	0	0	0	0	501	
1	0	0	0	0	502	
2	0	0	0	0	503	
3	0	0	0	0	504	
4	0	0	0	0	504	
5	0	0	0	0	501	
6	0	0	0	0	498	
7	0	0	0	0	496	
8	0	0	0	0	495	
9	0	0	0	0	493	
10	0	0	0	0	491	
11	0	0	0	0	489	
12	0	0	0	0	487	
13	0	0	0	0	496	
14	0	0	0	0	504	
15	0	0	0	0	506	
0	0	0	0	0	504	
1	0	0	0	0	508	
2	0	0	0	0	520	
3	0	0	0	0	523	
4	0	0	0	0	525	
5	0	0	0	0	531	
6	0	0	0	0	540	
7	0	0	0	0	552	
8	0	0	0	0	560	
9	0	0	0	0	566	
10	0	0	0	0	572	
11	0	0	0	0	590	
12	0	0	0	0	612	
13	0	0	0	0	626	
14	0	0	0	0	640	
15	0	0	0	0	661	
0	0	0	0	0	675	
1	0	0	0	0	686	
2	0	0	0	0	700	
3	0	0	0	0	719	
4	0	0	0	0	740	
5	0	0	0	0	755	
6	0	0	0	0	772	
7	0	0	0	0	787	
8	0	0	0	0	800	
9	0	0	0	0	809	
10	0	0	0	0	815	
11	0	0	0	0	816	
12	0	0	0	0	813	
13	0	0	0	0	809	
14	0	0	0	0	799	
15	0	0	0	0	784	
0	0	0	0	0	771	
1	0	0	0	0	752	
2	0	0	0	0	721	
3	0	0	0	0	686	
4	0	0	0	0	648	
5	0	0	0	0	607	
6	0	0	0	0	567	
7	0	0	0	0	523	
8	0	0	0	0	476	
9	0	0	0	0	429	
10	0	0	0	0	394	
11	0	0	0	0	369	
12	0	0	0	0	353	
13	0	0	0	0	341	
14	0	0	0	0	329	
15	0	0	0	0	317	
0	0	0	0	0	305	
1	0	0	0	0	300	
2	0	0	0	0	298	
3	0	0	0	0	302	
4	0	0	0	0	308	
5	0	0	0	0	310	
6	0	0	0	0	317	
7	0	0	0	0	320	
8	0	0	0	0	317	
9	0	0	0	0	313	
10	0	0	0	0	315	
11	0	0	0	0	329	
12	0	0	0	0	350	
13	0	0	0	0	358	
14	0	0	0	0	364	
15	0	0	0	0	366	
0	0	0	0	0	377	
1	0	0	0	0	392	
2	0	0	0	0	404	
3	0	0	0	0	408	
4	0	0	0	0	413	
5	0	0	0	0	423	
6	0	0	0	0	435	
7	0	0	0	0	446	
8	0	0	0	0	450	
9	0	0	0	0	454	
10	0	0	0	0	460	
11	0	0	0	0	465	
12	0	0	0	0	470	
13	0	0	0	0	474	
14	0	0	0	0	477	
15	0	0	0	0	477	
0	0	0	0	0	475	
1	0	0	0	0	477	
2	0	0	0	0	480	
3	0	0	0	0	482	
4	0	0	0	0	482	
5	0	0	0	0	481	
6	0	0	0	0	483	
7	0	0	0	0	487	
8	0	0	0	0	491	
9	0	0	0	0	490	
10	0	0	0	0	490	
11	0	0	0	0	490	
12	0	0	0	0	491	
13	0	0	0	0	496	
14	0	0	0	0	498	
15	0	0	0	0	502	
0	0	0	0	0	505	
1	0	0	0	0	506	
2	0	0	0	0	505	
3	0	0	0	0	504	
4	0	0	0	0	504	
5	0	0	0	0	503	
6	0	0	0	0	502	
7	0	0	0	0	500	
8	0	0	0	0	499	
9	0	0	0	0	501	
10	0	0	0	0	499	
11	0	0	0	0	499	
12	0	0	0	0	500	
13	0	0	0	0	501	
14	0	0	0	0	500	
15	0	0	0	0	501	
0	0	0	0	0	505	
1	0	0	0	0	504	
2	0	0	0	0	508	
3	0	0	0	0	512	
4	0	0	0	0	510	
5	0	0	0	0	499	
6	0	0	0	0	487	
7	0	0	0	0	489	
8	0	0	0	0	495	
9	0	0	0	0	504	
10	0	0	0	0	514	
11	0	0	0	0	524	
12	0	0	0	0	524	
13	0	0	0	0	513	
14	0	0	0	0	509	
15	0	0	0	0	512	
0	0	0	0	0	508	
1	0	0	0	0	501	
2	0	0	0	0	501	
3	0	0	0	0	505	
4	0	0	0	0	506	
5	0	0	0	0	508	
6	0	0	0	0	504	
7	0	0	0	0	504	
8	0	0	0	0	508	
9	0	0	0	0	510	
10	0	0	0	0	513	
11	0	0	0	0	512	
12	0	0	0	0	527	
13	0	0	0	0	527	
14	0	0	0	0	523	
15	0	0	0	0	523	
0	0	0	0	0	520	
1	0	0	0	0	517	
2	0	0	0	0	515	
3	0	0	0	0	515	
4	0	0	0	0	520	
5	0	0	0	0	523	
6	0	0	0	0	524	
7	0	0	0	0	523	
8	0	0	0	0	522	
9	0	0	0	0	515	
10	0	0	0	0	511	
11	0	0	0	0	511	
12	0	0	0	0	512	
13	0	0	0	0	509	
14	0	0	0	0	510	
15	0	0	0	0	513	
0	0	0	0	0	518	
1	0	0	0	0	516	
2	0	0	0	0	511	
3	0	0	0	0	508	
4	0	0	0	0	510	
5	0	0	0	0	512	
6	0	0	0	0	511	
7	0	0	0	0	512	
8	0	0	0	0	513	
9	0	0	0	0	515	
10	0	0	0	0	517	
11	0	0	0	0	519	
12	0	0	0	0	519	
13	0	0	0	0	509	
14	0	0	0	0	507	
15	0	0	0	0	513	
0	0	0	0	0	514	
1	0	0	0	0	519	
2	0	0	0	0	523	
3	0	0	0	0	524	
4	0	0	0	0	527	
5	0	0	0	0	520	
6	0	0	0	0	516	
7	0	0	0	0	519	
8	0	0	0	0	524	
9	0	0	0	0	519	
10	0	0	0	0	518	
11	0	0	0	0	524	
12	0	0	0	0	531	
13	0	0	0	0	529	
14	0	0	0	0	525	
15	0	0	0	0	525	
0	0	0	0	0	523	
1	0	0	0	0	521	
2	0	0	0	0	525	
3	0	0	0	0	533	
4	0	0	0	0	532	
5	0	0	0	0	521	
6	0	0	0	0	515	
7	0	0	0	0	514	
8	0	0	0	0	517	
9	0	0	0	0	513	
10	0	0	0	0	508	
11	0	0	0	0	511	
12	0	0	0	0	518	
13	0	0	0	0	516	
14	0	0	0	0	515	
15	0	0	0	0	514	
0	0	0	0	0	515	
1	0	0	0	0	518	
2	0	0	0	0	527	
3	0	0	0	0	530	
4	0	0	0	0	533	
5	0	0	0	0	536	
6	0	0	0	0	536	
7	0	0	0	0	532	
8	0	0	0	0	525	
9	0	0	0	0	523	
10	0	0	0	0	525	
11	0	0	0	0	533	
12	0	0	0	0	541	
13	0	0	0	0	536	
14	0	0	0	0	533	
15	0	0	0	0	538	
0	0	0	0	0	541	
1	0	0	0	0	539	
2	0	0	0	0	540	
3	0	0	0	0	537	
4	0	0	0	0	540	
5	0	0	0	0	546	
6	0	0	0	0	546	
7	0	0	0	0	543	
8	0	0	0	0	535	
9	0	0	0	0	536	
10	0	0	0	0	547	
11	0	0	0	0	550	
12	0	0	0	0	547	
13	0	0	0	0	549	
14	0	0	0	0	543	
15	0	0	0	0	539	
0	0	0	0	0	543	
1	0	0	0	0	542	
2	0	0	0	0	540	
3	0	0	0	0	543	
4	0	0	0	0	545	
5	0	0	0	0	548	
6	0	0	0	0	550	
7	0	0	0	0	549	
8	0	0	0	0	554	
9	0	0	0	0	550	
10	0	0	0	0	545	
11	0	0	0	0	544	
12	0	0	0	0	540	
13	0	0	0	0	536	
14	0	0	0	0	537	
15	0	0	0	0	540	
0	0	0	0	0	536	
1	0	0	0	0	538	
2	0	0	0	0	540	
3	0	0	0	0	540	
4	0	0	0	0	540	
5	0	0	0	0	542	
6	0	0	0	0	547	
7	0	0	0	0	547	
8	0	0	0	0	547	
9	0	0	0	0	538	
10	0	0	0	0	529	
11	0	0	0	0	528	
12	0	0	0	0	533	
13	0	0	0	0	539	
14	0	0	0	0	536	
15	0	0	0	0	523	
0	0	0	0	0	519	
1	0	0	0	0	517	
2	0	0	0	0	518	
3	0	0	0	0	521	
4	0	0	0	0	525	
5	0	0	0	0	530	
6	0	0	0	0	525	
7	0	0	0	0	529	
8	0	0	0	0	535	
9	0	0	0	0	535	
10	0	0	0	0	526	
11	0	0	0	0	511	
12	0	0	0	0	510	
13	0	0	0	0	509	
14	0	0	0	0	510	
15	0	0	0	0	508	
0	0	0	0	0	502	
1	0	0	0	0	499	
2	0	0	0	0	499	
3	0	0	0	0	503	
4	0	0	0	0	499	
5	0	0	0	0	490	
6	0	0	0	0	481	
7	0	0	0	0	481	
8	0	0	0	0	481	
9	0	0	0	0	483	
10	0	0	0	0	484	
11	0	0	0	0	474	
12	0	0	0	0	470	
13	0	0	0	0	470	
14	0	0	0	0	470	
15	0	0	0	0	472	
0	0	0	0	0	481	
1	0	0	0	0	485	
2	0	0	0	0	484	
3	0	0	0	0	485	
4	0	0	0	0	481	
5	0	0	0	0	477	
6	0	0	0	0	479	
7	0	0	0	0	476	
8	0	0	0	0	474	
9	0	0	0	0	471	
10	0	0	0	0	468	
11	0	0	0	0	474	
12	0	0	0	0	478	
13	0	0	0	0	480	
14	0	0	0	0	474	
15	0	0	0	0	472	
0	0	0	0	0	476	
1	0	0	0	0	477	
2	0	0	0	0	476	
3	0	0	0	0	472	
4	0	0	0	0	473	
5	0	0	0	0	473	
6	0	0	0	0	471	
7	0	0	0	0	474	
8	0	0	0	0	479	
9	0	0	0	0	480	
10	0	0	0	0	482	
11	0	0	0	0	483	
12	0	0	0	0	481	
13	0	0	0	0	470	
14	0	0	0	0	468	
15	0	0	0	0	466	
0	0	0	0	0	470	
1	0	0	0	0	473	
2	0	0	0	0	475	
3	0	0	0	0	471	
4	0	0	0	0	470	
5	0	0	0	0	467	
6	0	0	0	0	465	
7	0	0	0	0	469	
8	0	0	0	0	466	
9	0	0	0	0	462	
10	0	0	0	0	463	
11	0	0	0	0	464	
12	0	0	0	0	468	
13	0	0	0	0	469	
14	0	0	0	0	472	
15	0	0	0	0	472	
0	0	0	0	0	472	
1	0	0	0	0	474	
2	0	0	0	0	473	
3	0	0	0	0	475	
4	0	0	0	0	478	
5	0	0	0	0	479	
6	0	0	0	0	481	
7	0	0	0	0	482	
8	0	0	0	0	482	
9	0	0	0	0	482	
10	0	0	0	0	485	
11	0	0	0	0	482	
12	0	0	0	0	480	
13	0	0	0	0	484	
14	0	0	0	0	489	
15	0	0	0	0	480	
0	0	0	0	0	467	
1	0	0	0	0	462	
2	0	0	0	0	461	
3	0	0	0	0	463	
4	0	0	0	0	467	
5	0	0	0	0	470	
6	0	0	0	0	471	
7	0	0	0	0	480	
8	0	0	0	0	488	
9	0	0	0	0	496	
10	0	0	0	0	493	
11	0	0	0	0	481	
12	0	0	0	0	475	
13	0	0	0	0	479	
14	0	0	0	0	479	
15	0	0	0	0	479	
0	0	0	0	0	482	
1	0	0	0	0	486	
2	0	0	0	0	491	
3	0	0	0	0	495	
4	0	0	0	0	498	
5	0	0	0	0	501	
6	0	0	0	0	499	
7	0	0	0	0	497	
8	0	0	0	0	497	
9	0	0	0	0	498	
10	0	0	0	0	496	
11	0	0	0	0	500	
12	0	0	0	0	507	
13	0	0	0	0	502	
14	0	0	0	0	495	
15	0	0	0	0	494	
0	0	0	0	0	492	
1	0	0	0	0	495	
2	0	0	0	0	499	
3	0	0	0	0	499	
4	0	0	0	0	501	
5	0	0	0	0	501	
6	0	0	0	0	499	
7	0	0	0	0	501	
8	0	0	0	0	499	
9	0	0	0	0	495	
10	0	0	0	0	492	
11	0	0	0	0	495	
12	0	0	0	0	491	
13	0	0	0	0	487	
14	0	0	0	0	490	
15	0	0	0	0	498	
0	0	0	0	0	500	
1	0	0	0	0	505	
2	0	0	0	0	498	
3	0	0	0	0	497	
4	0	0	0	0	499	
5	0	0	0	0	501	
6	0	0	0	0	505	
7	0	0	0	0	507	
8	0	0	0	0	507	
9	0	0	0	0	504	
10	0	0	0	0	504	
11	0	0	0	0	504	
12	0	0	0	0	503	
13	0	0	0	0	504	
14	0	0	0	0	505	
15	0	0	0	0	499	
0	0	0	0	0	493	
1	0	0	0	0	493	
2	0	0	0	0	495	
3	0	0	0	0	494	
4	0	0	0	0	497	
5	0	0	0	0	506	
6	0	0	0	0	509	
7	0	0	0	0	509	
8	0	0	0	0	505	
9	0	0	0	0	505	
10	0	0	0	0	510	
11	0	0	0	0	516	
12	0	0	0	0	512	
13	0	0	0	0	508	
14	0	0	0	0	504	
15	0	0	0	0	500	
0	0	0	0	0	504	
1	0	0	0	0	505	
2	0	0	0	0	511	
3	0	0	0	0	512	
4	0	0	0	0	515	
5	0	0	0	0	512	
6	0	0	0	0	504	
7	0	0	0	0	505	
8	0	0	0	0	513	
9	0	0	0	0	513	
10	0	0	0	0	519	
11	0	0	0	0	521	
12	0	0	0	0	519	
13	0	0	0	0	512	
14	0	0	0	0	502	
15	0	0	0	0	500	
0	0	0	0	0	501	
1	0	0	0	0	499	
2	0	0	0	0	498	
3	0	0	0	0	492	
4	0	0	0	0	492	
5	0	0	0	0	492	
6	0	0	0	0	497	
7	0	0	0	0	504	
8	0	0	0	0	512	
9	0	0	0	0	517	
10	0	0	0	0	516	
11	0	0	0	0	512	
12	0	0	0	0	508	
13	0	0	0	0	511	
14	0	0	0	0	513	
15	0	0	0	0	513	
0	0	0	0	0	514	
1	0	0	0	0	515	
2	0	0	0	0	519	
3	0	0	0	0	519	
4	0	0	0	0	519	
5	0	0	0	0	520	
6	0	0	0	0	522	
7	0	0	0	0	517	
8	0	0	0	0	514	
9	0	0	0	0	511	
10	0	0	0	0	514	
11	0	0	0	0	514	
12	0	0	0	0	514	
13	0	0	0	0	511	
14	0	0	0	0	512	
15	0	0	0	0	515	
0	0	0	0	0	524	
1	0	0	0	0	526	
2	0	0	0	0	526	
3	0	0	0	0	531	
4	0	0	0	0	537	
5	0	0	0	0	534	
6	0	0	0	0	529	
7	0	0	0	0	519	
8	0	0	0	0	517	
9	0	0	0	0	516	
10	0	0	0	0	519	
11	0	0	0	0	519	
12	0	0	0	0	517	
13	0	0	0	0	512	
14	0	0	0	0	508	
15	0	0	0	0	508	
0	0	0	0	0	517	
1	0	0	0	0	529	
2	0	0	0	0	528	
3	0	0	0	0	520	
4	0	0	0	0	509	
5	0	0	0	0	502	
6	0	0	0	0	497	
7	0	0	0	0	500	
8	0	0	0	0	506	
9	0	0	0	0	504	
10	0	0	0	0	502	
11	0	0	0	0	504	
12	0	0	0	0	507	
13	0	0	0	0	510	
14	0	0	0	0	511	
15	0	0	0	0	518	
0	0	0	0	0	515	
1	0	0	0	0	507	
2	0	0	0	0	505	
3	0	0	0	0	504	
4	0	0	0	0	507	
5	0	0	0	0	509	
6	0	0	0	0	511	
7	0	0	0	0	510	
8	0	0	0	0	504	
9	0	0	0	0	503	
10	0	0	0	0	504	
11	0	0	0	0	502	
12	0	0	0	0	501	
13	0	0	0	0	500	
14	0	0	0	0	513	
15	0	0	0	0	514	
0	0	0	0	0	510	
1	0	0	0	0	508	
2	0	0	0	0	509	
3	0	0	0	0	512	
4	0	0	0	0	512	
5	0	0	0	0	509	
6	0	0	0	0	506	
7	0	0	0	0	503	
8	0	0	0	0	500	
9	0	0	0	0	499	
10	0	0	0	0	503	
11	0	0	0	0	506	
12	0	0	0	0	515	
13	0	0	0	0	527	
14	0	0	0	0	529	
15	0	0	0	0	527	
0	0	0	0	0	524	
1	0	0	0	0	521	
2	0	0	0	0	516	
3	0	0	0	0	514	
4	0	0	0	0	513	
5	0	0	0	0	512	
6	0	0	0	0	509	
7	0	0	0	0	507	
8	0	0	0	0	507	
9	0	0	0	0	504	
10	0	0	0	0	501	
11	0	0	0	0	497	
12	0	0	0	0	501	
13	0	0	0	0	504	
14	0	0	0	0	505	
15	0	0	0	0	511	
0	0	0	0	0	511	
1	0	0	0	0	508	
2	0	0	0	0	511	
3	0	0	0	0	516	
4	0	0	0	0	516	
5	0	0	0	0	522	
6	0	0	0	0	525	
7	0	0	0	0	525	
8	0	0	0	0	523	
9	0	0	0	0	524	
10	0	0	0	0	525	
11	0	0	0	0	526	
12	0	0	0	0	521	
13	0	0	0	0	513	
14	0	0	0	0	513	
15	0	0	0	0	517	
0	0	0	0	0	521	
1	0	0	0	0	524	
2	0	0	0	0	527	
3	0	0	0	0	533	
4	0	0	0	0	536	
5	0	0	0	0	536	
6	0	0	0	0	538	
7	0	0	0	0	536	
8	0	0	0	0	539	
9	0	0	0	0	536	
10	0	0	0	0	539	
11	0	0	0	0	539	
12	0	0	0	0	537	
13	0	0	0	0	532	
14	0	0	0	0	529	
15	0	0	0	0	534	
0	0	0	0	0	538	
1	0	0	0	0	533	
2	0	0	0	0	527	
3	0	0	0	0	525	
4	0	0	0	0	526	
5	0	0	0	0	529	
6	0	0	0	0	525	
7	0	0	0	0	525	
8	0	0	0	0	525	
9	0	0	0	0	518	
10	0	0	0	0	510	
11	0	0	0	0	508	
12	0	0	0	0	509	
13	0	0	0	0	512	
14	0	0	0	0	504	
15	0	0	0	0	499	
0	0	0	0	0	495	
1	0	0	0	0	494	
2	0	0	0	0	494	
3	0	0	0	0	496	
4	0	0	0	0	496	
5	0	0	0	0	497	
6	0	0	0	0	496	
7	0	0	0	0	489	
8	0	0	0	0	483	
9	0	0	0	0	489	
10	0	0	0	0	496	
11	0	0	0	0	503	
12	0	0	0	0	500	
13	0	0	0	0	491	
14	0	0	0	0	486	
15	0	0	0	0	494	
0	0	0	0	0	494	
1	0	0	0	0	491	
2	0	0	0	0	491	
3	0	0	0	0	490	
4	0	0	0	0	496	
5	0	0	0	0	501	
6	0	0	0	0	499	
7	0	0	0	0	491	
8	0	0	0	0	484	
9	0	0	0	0	486	
10	0	0	0	0	484	
11	0	0	0	0	480	
12	0	0	0	0	482	
13	0	0	0	0	485	
14	0	0	0	0	491	
15	0	0	0	0	494	
0	0	0	0	0	494	
1	0	0	0	0	495	
2	0	0	0	0	496	
3	0	0	0	0	492	
4	0	0	0	0	490	
5	0	0	0	0	489	
6	0	0	0	0	488	
7	0	0	0	0	492	
8	0	0	0	0	497	
9	0	0	0	0	496	
10	0	0	0	0	495	
11	0	0	0	0	495	
12	0	0	0	0	498	
13	0	0	0	0	503	
14	0	0	0	0	508	
15	0	0	0	0	509	
0	0	0	0	0	507	
1	0	0	0	0	503	
2	0	0	0	0	499	
3	0	0	0	0	499	
4	0	0	0	0	501	
5	0	0	0	0	499	
6	0	0	0	0	494	
7	0	0	0	0	489	
8	0	0	0	0	492	
9	0	0	0	0	496	
10	0	0	0	0	503	
11	0	0	0	0	507	
12	0	0	0	0	505	
13	0	0	0	0	508	
14	0	0	0	0	509	
15	0	0	0	0	508	
0	0	0	0	0	507	
1	0	0	0	0	498	
2	0	0	0	0	494	
3	0	0	0	0	496	
4	0	0	0	0	500	
5	0	0	0	0	508	
6	0	0	0	0	510	
7	0	0	0	0	510	
8	0	0	0	0	517	
9	0	0	0	0	521	
10	0	0	0	0	516	
11	0	0	0	0	510	
12	0	0	0	0	504	
13	0	0	0	0	500	
14	0	0	0	0	499	
15	0	0	0	0	499	
0	0	0	0	0	493	
1	0	0	0	0	492	
2	0	0	0	0	497	
3	0	0	0	0	503	
4	0	0	0	0	513	
5	0	0	0	0	526	
6	0	0	0	0	533	
7	0	0	0	0	536	
8	0	0	0	0	539	
9	0	0	0	0	541	
10	0	0	0	0	550	
11	0	0	0	0	571	
12	0	0	0	0	587	
13	0	0	0	0	606	
14	0	0	0	0	625	
15	0	0	0	0	643	
0	0	0	0	0	659	
1	0	0	0	0	672	
2	0	0	0	0	683	
3	0	0	0	0	692	
4	0	0	0	0	712	
5	0	0	0	0	733	
6	0	0	0	0	744	
7	0	0	0	0	762	
8	0	0	0	0	780	
9	0	0	0	0	794	
10	0	0	0	0	808	
11	0	0	0	0	812	
12	0	0	0	0	808	
13	0	0	0	0	800	
14	0	0	0	0	795	
15	0	0	0	0	784	
0	0	0	0	0	764	
1	0	0	0	0	745	
2	0	0	0	0	721	
3	0	0	0	0	691	
4	0	0	0	0	660	
5	0	0	0	0	620	
6	0	0	0	0	576	
7	0	0	0	0	525	
8	0	0	0	0	471	
9	0	0	0	0	424	
10	0	0	0	0	387	
11	0	0	0	0	366	
12	0	0	0	0	348	
13	0	0	0	0	332	
14	0	0	0	0	319	
15	0	0	0	0	306	
0	0	0	0	0	296	
1	0	0	0	0	288	
2	0	0	0	0	290	
3	0	0	0	0	294	
4	0	0	0	0	292	
5	0	0	0	0	292	
6	0	0	0	0	287	
7	0	0	0	0	283	
8	0	0	0	0	289	
9	0	0	0	0	293	
10	0	0	0	0	301	
11	0	0	0	0	312	
12	0	0	0	0	327	
13	0	0	0	0	339	
14	0	0	0	0	347	
15	0	0	0	0	358	
0	0	0	0	0	367	
1	0	0	0	0	371	
2	0	0	0	0	381	
3	0	0	0	0	395	
4	0	0	0	0	395	
5	0	0	0	0	397	
6	0	0	0	0	408	
7	0	0	0	0	419	
8	0	0	0	0	436	
9	0	0	0	0	447	
10	0	0	0	0	454	
11	0	0	0	0	470	
12	0	0	0	0	479	
13	0	0	0	0	483	
14	0	0	0	0	487	
15	0	0	0	0	499	
0	0	0	0	0	500	
1	0	0	0	0	500	
2	0	0	0	0	491	
3	0	0	0	0	482	
4	0	0	0	0	479	
5	0	0	0	0	479	
6	0	0	0	0	480	
7	0	0	0	0	486	
8	0	0	0	0	494	
9	0	0	0	0	494	
10	0	0	0	0	487	
11	0	0	0	0	486	
12	0	0	0	0	483	
13	0	0	0	0	484	
14	0	0	0	0	487	
15	0	0	0	0	489	
0	0	0	0	0	490	
1	0	0	0	0	487	
2	0	0	0	0	488	
3	0	0	0	0	490	
4	0	0	0	0	496	
5	0	0	0	0	502	
6	0	0	0	0	498	
7	0	0	0	0	494	
8	0	0	0	0	488	
9	0	0	0	0	495	
10	0	0	0	0	501	
11	0	0	0	0	501	
12	0	0	0	0	504	
13	0	0	0	0	510	
14	0	0	0	0	505	
15	0	0	0	0	502	
0	0	0	0	0	496	
1	0	0	0	0	497	
2	0	0	0	0	503	
3	0	0	0	0	512	
4	0	0	0	0	524	
5	0	0	0	0	520	
6	0	0	0	0	516	
7	0	0	0	0	516	
8	0	0	0	0	519	
9	0	0	0	0	515	
10	0	0	0	0	515	
11	0	0	0	0	512	
12	0	0	0	0	507	
13	0	0	0	0	504	
14	0	0	0	0	505	
15	0	0	0	0	506	
0	0	0	0	0	510	
1	0	0	0	0	508	
2	0	0	0	0	506	
3	0	0	0	0	504	
4	0	0	0	0	501	
5	0	0	0	0	497	
6	0	0	0	0	500	
7	0	0	0	0	504	
8	0	0	0	0	510	
9	0	0	0	0	513	
10	0	0	0	0	513	
11	0	0	0	0	511	
12	0	0	0	0	504	
13	0	0	0	0	504	
14	0	0	0	0	508	
15	0	0	0	0	507	
0	0	0	0	0	501	
1	0	0	0	0	498	
2	0	0	0	0	499	
3	0	0	0	0	498	
4	0	0	0	0	496	
5	0	0	0	0	503	
6	0	0	0	0	510	
7	0	0	0	0	518	
8	0	0	0	0	519	
9	0	0	0	0	521	
10	0	0	0	0	525	
11	0	0	0	0	529	
12	0	0	0	0	529	
13	0	0	0	0	528	
14	0	0	0	0	523	
15	0	0	0	0	519	
0	0	0	0	0	520	
1	0	0	0	0	524	
2	0	0	0	0	519	
3	0	0	0	0	507	
4	0	0	0	0	497	
5	0	0	0	0	496	
6	0	0	0	0	497	
7	0	0	0	0	496	
8	0	0	0	0	499	
9	0	0	0	0	503	
10	0	0	0	0	507	
11	0	0	0	0	512	
12	0	0	0	0	512	
13	0	0	0	0	509	
14	0	0	0	0	505	
15	0	0	0	0	502	
0	0	0	0	0	508	
1	0	0	0	0	518	
2	0	0	0	0	522	
3	0	0	0	0	524	
4	0	0	0	0	517	
5	0	0	0	0	515	
6	0	0	0	0	512	
7	0	0	0	0	513	
8	0	0	0	0	513	
9	0	0	0	0	508	
10	0	0	0	0	508	
11	0	0	0	0	510	
12	0	0	0	0	507	
13	0	0	0	0	507	
14	0	0	0	0	517	
15	0	0	0	0	521	
0	0	0	0	0	517	
1	0	0	0	0	521	
2	0	0	0	0	524	
3	0	0	0	0	519	
4	0	0	0	0	520	
5	0	0	0	0	519	
6	0	0	0	0	518	
7	0	0	0	0	519	
8	0	0	0	0	520	
9	0	0	0	0	518	
10	0	0	0	0	518	
11	0	0	0	0	520	
12	0	0	0	0	519	
13	0	0	0	0	515	
14	0	0	0	0	513	
15	0	0	0	0	516	
0	0	0	0	0	519	
1	0	0	0	0	517	
2	0	0	0	0	514	
3	0	0	0	0	515	
4	0	0	0	0	520	
5	0	0	0	0	527	
6	0	0	0	0	527	
7	0	0	0	0	524	
8	0	0	0	0	518	
9	0	0	0	0	516	
10	0	0	0	0	523	
11	0	0	0	0	526	
12	0	0	0	0	532	
13	0	0	0	0	536	
14	0	0	0	0	536	
15	0	0	0	0	535	
0	0	0	0	0	542	
1	0	0	0	0	545	
2	0	0	0	0	541	
3	0	0	0	0	536	
4	0	0	0	0	531	
5	0	0	0	0	530	
6	0	0	0	0	536	
7	0	0	0	0	539	
8	0	0	0	0	540	
9	0	0	0	0	542	
10	0	0	0	0	543	
11	0	0	0	0	539	
12	0	0	0	0	538	
13	0	0	0	0	536	
14	0	0	0	0	540	
15	0	0	0	0	547	
0	0	0	0	0	547	
1	0	0	0	0	545	
2	0	0	0	0	540	
3	0	0	0	0	541	
4	0	0	0	0	548	
5	0	0	0	0	549	
6	0	0	0	0	548	
7	0	0	0	0	549	
8	0	0	0	0	547	
9	0	0	0	0	545	
10	0	0	0	0	546	
11	0	0	0	0	548	
12	0	0	0	0	546	
13	0	0	0	0	548	
14	0	0	0	0	557	
15	0	0	0	0	560	
0	0	0	0	0	550	
1	0	0	0	0	537	
2	0	0	0	0	532	
3	0	0	0	0	535	
4	0	0	0	0	532	
5	0	0	0	0	531	
6	0	0	0	0	528	
7	0	0	0	0	529	
8	0	0	0	0	534	
9	0	0	0	0	534	
10	0	0	0	0	534	
11	0	0	0	0	536	
12	0	0	0	0	532	
13	0	0	0	0	527	
14	0	0	0	0	520	
15	0	0	0	0	514	
0	0	0	0	0	514	
1	0	0	0	0	521	
2	0	0	0	0	529	
3	0	0	0	0	526	
4	0	0	0	0	515	
5	0	0	0	0	511	
6	0	0	0	0	514	
7	0	0	0	0	516	
8	0	0	0	0	518	
9	0	0	0	0	524	
10	0	0	0	0	524	
11	0	0	0	0	521	
12	0	0	0	0	520	
13	0	0	0	0	517	
14	0	0	0	0	515	
15	0	0	0	0	508	
0	0	0	0	0	505	
1	0	0	0	0	505	
2	0	0	0	0	504	
3	0	0	0	0	496	
4	0	0	0	0	487	
5	0	0	0	0	488	
6	0	0	0	0	493	
7	0	0	0	0	497	
8	0	0	0	0	499	
9	0	0	0	0	495	
10	0	0	0	0	491	
11	0	0	0	0	496	
12	0	0	0	0	501	
13	0	0	0	0	502	
14	0	0	0	0	500	
15	0	0	0	0	495	
0	0	0	0	0	488	
1	0	0	0	0	485	
2	0	0	0	0	486	
3	0	0	0	0	491	
4	0	0	0	0	502	
5	0	0	0	0	498	
6	0	0	0	0	491	
7	0	0	0	0	489	
8	0	0	0	0	484	
9	0	0	0	0	479	
10	0	0	0	0	476	
11	0	0	0	0	473	
12	0	0	0	0	466	
13	0	0	0	0	461	
14	0	0	0	0	454	
15	0	0	0	0	449	
0	0	0	0	0	450	
1	0	0	0	0	456	
2	0	0	0	0	467	
3	0	0	0	0	473	
4	0	0	0	0	477	
5	0	0	0	0	480	
6	0	0	0	0	480	
7	0	0	0	0	474	
8	0	0	0	0	466	
9	0	0	0	0	459	
10	0	0	0	0	453	
11	0	0	0	0	452	
12	0	0	0	0	455	
13	0	0	0	0	458	
14	0	0	0	0	464	
15	0	0	0	0	471	
0	0	0	0	0	477	
1	0	0	0	0	482	
2	0	0	0	0	484	
3	0	0	0	0	471	
4	0	0	0	0	460	
5	0	0	0	0	460	
6	0	0	0	0	465	
7	0	0	0	0	468	
8	0	0	0	0	468	
9	0	0	0	0	468	
10	0	0	0	0	469	
11	0	0	0	0	473	
12	0	0	0	0	476	
13	0	0	0	0	476	
14	0	0	0	0	480	
15	0	0	0	0	473	
0	0	0	0	0	467	
1	0	0	0	0	466	
2	0	0	0	0	472	
3	0	0	0	0	477	
4	0	0	0	0	480	
5	0	0	0	0	475	
6	0	0	0	0	477	
7	0	0	0	0	476	
8	0	0	0	0	471	
9	0	0	0	0	468	
10	0	0	0	0	465	
11	0	0	0	0	466	
12	0	0	0	0	471	
13	0	0	0	0	469	
14	0	0	0	0	475	
15	0	0	0	0	481	
0	0	0	0	0	483	
1	0	0	0	0	482	
2	0	0	0	0	479	
3	0	0	0	0	474	
4	0	0	0	0	473	
5	0	0	0	0	477	
6	0	0	0	0	482	
7	0	0	0	0	483	
8	0	0	0	0	486	
9	0	0	0	0	487	
10	0	0	0	0	485	
11	0	0	0	0	486	
12	0	0	0	0	488	
13	0	0	0	0	479	
14	0	0	0	0	469	
15	0	0	0	0	473	
0	0	0	0	0	483	
1	0	0	0	0	487	
2	0	0	0	0	488	
3	0	0	0	0	493	
4	0	0	0	0	496	
5	0	0	0	0	498	
6	0	0	0	0	501	
7	0	0	0	0	500	
8	0	0	0	0	499	
9	0	0	0	0	495	
10	0	0	0	0	489	
11	0	0	0	0	485	
12	0	0	0	0	489	
13	0	0	0	0	490	
14	0	0	0	0	483	
15	0	0	0	0	479	
0	0	0	0	0	480	
1	0	0	0	0	482	
2	0	0	0	0	483	
3	0	0	0	0	483	
4	0	0	0	0	483	
5	0	0	0	0	480	
6	0	0	0	0	481	
7	0	0	0	0	487	
8	0	0	0	0	497	
9	0	0	0	0	503	
10	0	0	0	0	504	
11	0	0	0	0	502	
12	0	0	0	0	495	
13	0	0	0	0	492	
14	0	0	0	0	492	
15	0	0	0	0	491	
0	0	0	0	0	497	
1	0	0	0	0	502	
2	0	0	0	0	503	
3	0	0	0	0	502	
4	0	0	0	0	499	
5	0	0	0	0	491	
6	0	0	0	0	491	
7	0	0	0	0	489	
8	0	0	0	0	486	
9	0	0	0	0	486	
10	0	0	0	0	493	
11	0	0	0	0	490	
12	0	0	0	0	488	
13	0	0	0	0	488	
14	0	0	0	0	489	
15	0	0	0	0	498	
0	0	0	0	0	501	
1	0	0	0	0	499	
2	0	0	0	0	496	
3	0	0	0	0	493	
4	0	0	0	0	495	
5	0	0	0	0	495	
6	0	0	0	0	489	
7	0	0	0	0	489	
8	0	0	0	0	497	
9	0	0	0	0	504	
10	0	0	0	0	502	
11	0	0	0	0	504	
12	0	0	0	0	506	
13	0	0	0	0	504	
14	0	0	0	0	500	
15	0	0	0	0	497	
0	0	0	0	0	496	
1	0	0	0	0	495	
2	0	0	0	0	496	
3	0	0	0	0	495	
4	0	0	0	0	494	
5	0	0	0	0	491	
6	0	0	0	0	490	
7	0	0	0	0	493	
8	0	0	0	0	496	
9	0	0	0	0	489	
10	0	0	0	0	487	
11	0	0	0	0	488	
12	0	0	0	0	491	
13	0	0	0	0	494	
14	0	0	0	0	493	
15	0	0	0	0	500	
0	0	0	0	0	506	
1	0	0	0	0	503	
2	0	0	0	0	500	
3	0	0	0	0	501	
4	0	0	0	0	498	
5	0	0	0	0	500	
6	0	0	0	0	507	
7	0	0	0	0	511	
8	0	0	0	0	509	
9	0	0	0	0	510	
10	0	0	0	0	510	
11	0	0	0	0	507	
12	0	0	0	0	502	
13	0	0	0	0	495	
14	0	0	0	0	492	
15	0	0	0	0	492	
0	0	0	0	0	496	
1	0	0	0	0	504	
2	0	0	0	0	504	
3	0	0	0	0	505	
4	0	0	0	0	508	
5	0	0	0	0	510	
6	0	0	0	0	504	
7	0	0	0	0	499	
8	0	0	0	0	498	
9	0	0	0	0	496	
10	0	0	0	0	497	
11	0	0	0	0	498	
12	0	0	0	0	501	
13	0	0	0	0	503	
14	0	0	0	0	503	
15	0	0	0	0	503	
0	0	0	0	0	496	
1	0	0	0	0	492	
2	0	0	0	0	496	
3	0	0	0	0	499	
4	0	0	0	0	502	
5	0	0	0	0	502	
6	0	0	0	0	500	
7	0	0	0	0	496	
8	0	0	0	0	491	
9	0	0	0	0	493	
10	0	0	0	0	497	
11	0	0	0	0	496	
12	0	0	0	0	496	
13	0	0	0	0	496	
14	0	0	0	0	495	
15	0	0	0	0	498	
0	0	0	0	0	501	
1	0	0	0	0	503	
2	0	0	0	0	497	
3	0	0	0	0	491	
4	0	0	0	0	492	
5	0	0	0	0	486	
6	0	0	0	0	485	
7	0	0	0	0	486	
8	0	0	0	0	489	
9	0	0	0	0	494	
10	0	0	0	0	499	
11	0	0	0	0	502	
12	0	0	0	0	498	
13	0	0	0	0	498	
14	0	0	0	0	504	
15	0	0	0	0	508	
0	0	0	0	0	500	
1	0	0	0	0	488	
2	0	0	0	0	487	
3	0	0	0	0	492	
4	0	0	0	0	495	
5	0	0	0	0	494	
6	0	0	0	0	497	
7	0	0	0	0	505	
8	0	0	0	0	500	
9	0	0	0	0	494	
10	0	0	0	0	492	
11	0	0	0	0	500	
12	0	0	0	0	515	
13	0	0	0	0	526	
14	0	0	0	0	527	
15	0	0	0	0	520	
0	0	0	0	0	512	
1	0	0	0	0	504	
2	0	0	0	0	501	
3	0	0	0	0	503	
4	0	0	0	0	504	
5	0	0	0	0	503	
6	0	0	0	0	503	
7	0	0	0	0	502	
8	0	0	0	0	501	
9	0	0	0	0	504	
10	0	0	0	0	509	
11	0	0	0	0	507	
12	0	0	0	0	499	
13	0	0	0	0	494	
14	0	0	0	0	492	
15	0	0	0	0	490	
0	0	0	0	0	493	
1	0	0	0	0	501	
2	0	0	0	0	504	
3	0	0	0	0	502	
4	0	0	0	0	504	
5	0	0	0	0	504	
6	0	0	0	0	505	
7	0	0	0	0	502	
8	0	0	0	0	502	
9	0	0	0	0	502	
10	0	0	0	0	503	
11	0	0	0	0	502	
12	0	0	0	0	498	
13	0	0	0	0	496	
14	0	0	0	0	499	
15	0	0	0	0	499	
0	0	0	0	0	500	
1	0	0	0	0	499	
2	0	0	0	0	496	
3	0	0	0	0	492	
4	0	0	0	0	493	
5	0	0	0	0	499	
6	0	0	0	0	503	
7	0	0	0	0	503	
8	0	0	0	0	502	
9	0	0	0	0	503	
10	0	0	0	0	502	
11	0	0	0	0	497	
12	0	0	0	0	496	
13	0	0	0	0	497	
14	0	0	0	0	500	
15	0	0	0	0	505	
0	0	0	0	0	507	
1	0	0	0	0	511	
2	0	0	0	0	510	
3	0	0	0	0	505	
4	0	0	0	0	506	
5	0	0	0	0	503	
6	0	0	0	0	500	
7	0	0	0	0	500	
8	0	0	0	0	495	
9	0	0	0	0	494	
10	0	0	0	0	502	
11	0	0	0	0	505	
12	0	0	0	0	499	
13	0	0	0	0	494	
14	0	0	0	0	491	
15	0	0	0	0	497	
0	0	0	0	0	502	
1	0	0	0	0	503	
2	0	0	0	0	504	
3	0	0	0	0	506	
4	0	0	0	0	504	
5	0	0	0	0	502	
6	0	0	0	0	501	
7	0	0	0	0	502	
8	0	0	0	0	504	
9	0	0	0	0	499	
10	0	0	0	0	496	
11	0	0	0	0	495	
12	0	0	0	0	501	
13	0	0	0	0	507	
14	0	0	0	0	507	
15	0	0	0	0	506	
0	0	0	0	0	506	
1	0	0	0	0	508	
2	0	0	0	0	511	
3	0	0	0	0	514	
4	0	0	0	0	520	
5	0	0	0	0	527	
6	0	0	0	0	524	
7	0	0	0	0	524	
8	0	0	0	0	519	
9	0	0	0	0	519	
10	0	0	0	0	524	
11	0	0	0	0	534	
12	0	0	0	0	535	
13	0	0	0	0	533	
14	0	0	0	0	529	
15	0	0	0	0	522	
0	0	0	0	0	525	
1	0	0	0	0	528	
2	0	0	0	0	529	
3	0	0	0	0	532	
4	0	0	0	0	529	
5	0	0	0	0	524	
6	0	0	0	0	522	
7	0	0	0	0	524	
8	0	0	0	0	528	
9	0	0	0	0	526	
10	0	0	0	0	524	
11	0	0	0	0	523	
12	0	0	0	0	518	
13	0	0	0	0	510	
14	0	0	0	0	508	
15	0	0	0	0	507	
0	0	0	0	0	509	
1	0	0	0	0	510	
2	0	0	0	0	509	
3	0	0	0	0	509	
4	0	0	0	0	509	
5	0	0	0	0	510	
6	0	0	0	0	508	
7	0	0	0	0	505	
8	0	0	0	0	511	
9	0	0	0	0	510	
10	0	0	0	0	508	
11	0	0	0	0	506	
12	0	0	0	0	507	
13	0	0	0	0	505	
14	0	0	0	0	502	
15	0	0	0	0	501	
0	0	0	0	0	502	
1	0	0	0	0	498	
2	0	0	0	0	491	
3	0	0	0	0	486	
4	0	0	0	0	484	
5	0	0	0	0	483	
6	0	0	0	0	479	
7	0	0	0	0	475	
8	0	0	0	0	478	
9	0	0	0	0	483	
10	0	0	0	0	485	
11	0	0	0	0	484	
12	0	0	0	0	482	
13	0	0	0	0	481	
14	0	0	0	0	487	
15	0	0	0	0	496	
0	0	0	0	0	508	
1	0	0	0	0	511	
2	0	0	0	0	503	
3	0	0	0	0	497	
4	0	0	0	0	497	
5	0	0	0	0	501	
6	0	0	0	0	507	
7	0	0	0	0	512	
8	0	0	0	0	508	
9	0	0	0	0	502	
10	0	0	0	0	499	
11	0	0	0	0	501	
12	0	0	0	0	504	
13	0	0	0	0	503	
14	0	0	0	0	502	
15	0	0	0	0	504	
0	0	0	0	0	504	
1	0	0	0	0	495	
2	0	0	0	0	490	
3	0	0	0	0	494	
4	0	0	0	0	496	
5	0	0	0	0	497	
6	0	0	0	0	499	
7	0	0	0	0	504	
8	0	0	0	0	505	
9	0	0	0	0	501	
10	0	0	0	0	497	
11	0	0	0	0	495	
12	0	0	0	0	492	
13	0	0	0	0	492	
14	0	0	0	0	497	
15	0	0	0	0	497	
0	0	0	0	0	505	
1	0	0	0	0	512	
2	0	0	0	0	516	
3	0	0	0	0	511	
4	0	0	0	0	504	
5	0	0	0	0	508	
6	0	0	0	0	513	
7	0	0	0	0	515	
8	0	0	0	0	514	
9	0	0	0	0	507	
10	0	0	0	0	502	
11	0	0	0	0	494	
12	0	0	0	0	490	
13	0	0	0	0	489	
14	0	0	0	0	487	
15	0	0	0	0	488	
0	0	0	0	0	484	
1	0	0	0	0	483	
2	0	0	0	0	484	
3	0	0	0	0	488	
4	0	0	0	0	491	
5	0	0	0	0	494	
6	0	0	0	0	499	
7	0	0	0	0	503	
8	0	0	0	0	506	
9	0	0	0	0	506	
10	0	0	0	0	506	
11	0	0	0	0	505	
12	0	0	0	0	501	
13	0	0	0	0	505	
14	0	0	0	0	515	
15	0	0	0	0	524	
0	0	0	0	0	536	
1	0	0	0	0	550	
2	0	0	0	0	561	
3	0	0	0	0	572	
4	0	0	0	0	588	
5	0	0	0	0	604	
6	0	0	0	0	620	
7	0	0	0	0	636	
8	0	0	0	0	650	
9	0	0	0	0	669	
10	0	0	0	0	687	
11	0	0	0	0	703	
12	0	0	0	0	724	
13	0	0	0	0	749	
14	0	0	0	0	766	
15	0	0	0	0	782	
0	0	0	0	0	793	
1	0	0	0	0	806	
2	0	0	0	0	811	
3	0	0	0	0	810	
4	0	0	0	0	806	
5	0	0	0	0	807	
6	0	0	0	0	806	
7	0	0	0	0	795	
8	0	0	0	0	780	
9	0	0	0	0	761	
10	0	0	0	0	733	
11	0	0	0	0	702	
12	0	0	0	0	672	
13	0	0	0	0	637	
14	0	0	0	0	591	
15	0	0	0	0	539	
0	0	0	0	0	486	
1	0	0	0	0	433	
2	0	0	0	0	388	
3	0	0	0	0	359	
4	0	0	0	0	338	
5	0	0	0	0	319	
6	0	0	0	0	304	
7	0	0	0	0	291	
8	0	0	0	0	285	
9	0	0	0	0	282	
10	0	0	0	0	276	
11	0	0	0	0	268	
12	0	0	0	0	264	
13	0	0	0	0	266	
14	0	0	0	0	273	
15	0	0	0	0	283	
0	0	0	0	0	290	
1	0	0	0	0	299	
2	0	0	0	0	311	
3	0	0	0	0	319	
4	0	0	0	0	338	
5	0	0	0	0	350	
6	0	0	0	0	358	
7	0	0	0	0	366	
8	0	0	0	0	376	
9	0	0	0	0	388	
10	0	0	0	0	407	
11	0	0	0	0	423	
12	0	0	0	0	432	
13	0	0	0	0	441	
14	0	0	0	0	449	
15	0	0	0	0	452	
0	0	0	0	0	456	
1	0	0	0	0	464	
2	0	0	0	0	471	
3	0	0	0	0	476	
4	0	0	0	0	480	
5	0	0	0	0	489	
6	0	0	0	0	495	
7	0	0	0	0	498	
8	0	0	0	0	499	
9	0	0	0	0	499	
10	0	0	0	0	499	
11	0	0	0	0	497	
12	0	0	0	0	497	
13	0	0	0	0	499	
14	0	0	0	0	495	
15	0	0	0	0	499	
0	0	0	0	0	500	
1	0	0	0	0	496	
2	0	0	0	0	496	
3	0	0	0	0	496	
4	0	0	0	0	493	
5	0	0	0	0	494	
6	0	0	0	0	495	
7	0	0	0	0	501	
8	0	0	0	0	509	
9	0	0	0	0	513	
10	0	0	0	0	516	
11	0	0	0	0	513	
12	0	0	0	0	512	
13	0	0	0	0	519	
14	0	0	0	0	528	
15	0	0	0	0	527	
0	0	0	0	0	522	
1	0	0	0	0	518	
2	0	0	0	0	513	
3	0	0	0	0	508	
4	0	0	0	0	509	
5	0	0	0	0	519	
6	0	0	0	0	526	
7	0	0	0	0	526	
8	0	0	0	0	522	
9	0	0	0	0	519	
10	0	0	0	0	517	
11	0	0	0	0	516	
12	0	0	0	0	519	
13	0	0	0	0	521	
14	0	0	0	0	518	
15	0	0	0	0	515	
0	0	0	0	0	517	
1	0	0	0	0	518	
2	0	0	0	0	516	
3	0	0	0	0	520	
4	0	0	0	0	534	
5	0	0	0	0	537	
6	0	0	0	0	533	
7	0	0	0	0	532	
8	0	0	0	0	535	
9	0	0	0	0	536	
10	0	0	0	0	535	
11	0	0	0	0	531	
12	0	0	0	0	529	
13	0	0	0	0	528	
14	0	0	0	0	528	
15	0	0	0	0	531	
0	0	0	0	0	528	
1	0	0	0	0	524	
2	0	0	0	0	520	
3	0	0	0	0	524	
4	0	0	0	0	526	
5	0	0	0	0	524	
6	0	0	0	0	522	
7	0	0	0	0	526	
8	0	0	0	0	528	
9	0	0	0	0	534	
10	0	0	0	0	538	
11	0	0	0	0	539	
12	0	0	0	0	540	
13	0	0	0	0	536	
14	0	0	0	0	532	
15	0	0	0	0	527	
0	0	0	0	0	523	
1	0	0	0	0	520	
2	0	0	0	0	525	
3	0	0	0	0	526	
4	0	0	0	0	514	
5	0	0	0	0	506	
6	0	0	0	0	512	
7	0	0	0	0	519	
8	0	0	0	0	517	
9	0	0	0	0	516	
10	0	0	0	0	523	
11	0	0	0	0	520	
12	0	0	0	0	515	
13	0	0	0	0	515	
14	0	0	0	0	515	
15	0	0	0	0	515	
0	0	0	0	0	514	
1	0	0	0	0	513	
2	0	0	0	0	512	
3	0	0	0	0	513	
4	0	0	0	0	518	
5	0	0	0	0	523	
6	0	0	0	0	524	
7	0	0	0	0	522	
8	0	0	0	0	526	
9	0	0	0	0	532	
10	0	0	0	0	530	
11	0	0	0	0	528	
12	0	0	0	0	526	
13	0	0	0	0	523	
14	0	0	0	0	523	
15	0	0	0	0	527	
0	0	0	0	0	531	
1	0	0	0	0	533	
2	0	0	0	0	527	
3	0	0	0	0	519	
4	0	0	0	0	514	
5	0	0	0	0	516	
6	0	0	0	0	516	
7	0	0	0	0	514	
8	0	0	0	0	520	
9	0	0	0	0	524	
10	0	0	0	0	531	
11	0	0	0	0	530	
12	0	0	0	0	528	
13	0	0	0	0	525	
14	0	0	0	0	524	
15	0	0	0	0	527	
0	0	0	0	0	530	
1	0	0	0	0	525	
2	0	0	0	0	525	
3	0	0	0	0	528	
4	0	0	0	0	530	
5	0	0	0	0	533	
6	0	0	0	0	536	
7	0	0	0	0	543	
8	0	0	0	0	550	
9	0	0	0	0	550	
10	0	0	0	0	540	
11	0	0	0	0	534	
12	0	0	0	0	530	
13	0	0	0	0	526	
14	0	0	0	0	523	
15	0	0	0	0	518	
0	0	0	0	0	519	
1	0	0	0	0	523	
2	0	0	0	0	524	
3	0	0	0	0	532	
4	0	0	0	0	540	
5	0	0	0	0	547	
6	0	0	0	0	551	
7	0	0	0	0	544	
8	0	0	0	0	541	
9	0	0	0	0	552	
10	0	0	0	0	563	
11	0	0	0	0	560	
12	0	0	0	0	554	
13	0	0	0	0	551	
14	0	0	0	0	555	
15	0	0	0	0	561	
0	0	0	0	0	563	
1	0	0	0	0	556	
2	0	0	0	0	554	
3	0	0	0	0	556	
4	0	0	0	0	555	
5	0	0	0	0	555	
6	0	0	0	0	557	
7	0	0	0	0	556	
8	0	0	0	0	551	
9	0	0	0	0	553	
10	0	0	0	0	548	
11	0	0	0	0	547	
12	0	0	0	0	551	
13	0	0	0	0	561	
14	0	0	0	0	568	
15	0	0	0	0	569	
0	0	0	0	0	566	
1	0	0	0	0	567	
2	0	0	0	0	558	
3	0	0	0	0	544	
4	0	0	0	0	545	
5	0	0	0	0	547	
6	0	0	0	0	543	
7	0	0	0	0	545	
8	0	0	0	0	548	
9	0	0	0	0	548	
10	0	0	0	0	546	
11	0	0	0	0	544	
12	0	0	0	0	545	
13	0	0	0	0	546	
14	0	0	0	0	547	
15	0	0	0	0	543	
0	0	0	0	0	541	
1	0	0	0	0	547	
2	0	0	0	0	556	
3	0	0	0	0	556	
4	0	0	0	0	551	
5	0	0	0	0	544	
6	0	0	0	0	547	
7	0	0	0	0	552	
8	0	0	0	0	549	
9	0	0	0	0	548	
10	0	0	0	0	539	
11	0	0	0	0	533	
12	0	0	0	0	530	
13	0	0	0	0	525	
14	0	0	0	0	519	
15	0	0	0	0	516	
0	0	0	0	0	518	
1	0	0	0	0	523	
2	0	0	0	0	521	
3	0	0	0	0	514	
4	0	0	0	0	512	
5	0	0	0	0	512	
6	0	0	0	0	514	
7	0	0	0	0	522	
8	0	0	0	0	522	
9	0	0	0	0	521	
10	0	0	0	0	522	
11	0	0	0	0	529	
12	0	0	0	0	519	
13	0	0	0	0	512	
14	0	0	0	0	505	
15	0	0	0	0	497	
0	0	0	0	0	495	
1	0	0	0	0	501	
2	0	0	0	0	502	
3	0	0	0	0	504	
4	0	0	0	0	502	
5	0	0	0	0	498	
6	0	0	0	0	499	
7	0	0	0	0	497	
8	0	0	0	0	496	
9	0	0	0	0	495	
10	0	0	0	0	493	
11	0	0	0	0	486	
12	0	0	0	0	479	
13	0	0	0	0	482	
14	0	0	0	0	486	
15	0	0	0	0	486	
0	0	0	0	0	480	
1	0	0	0	0	476	
2	0	0	0	0	473	
3	0	0	0	0	475	
4	0	0	0	0	480	
5	0	0	0	0	485	
6	0	0	0	0	483	
7	0	0	0	0	478	
8	0	0	0	0	479	
9	0	0	0	0	479	
10	0	0	0	0	478	
11	0	0	0	0	476	
12	0	0	0	0	481	
13	0	0	0	0	489	
14	0	0	0	0	488	
15	0	0	0	0	483	
0	0	0	0	0	483	
1	0	0	0	0	488	
2	0	0	0	0	483	
3	0	0	0	0	473	
4	0	0	0	0	468	
5	0	0	0	0	467	
6	0	0	0	0	461	
7	0	0	0	0	451	
8	0	0	0	0	448	
9	0	0	0	0	454	
10	0	0	0	0	468	
11	0	0	0	0	476	
12	0	0	0	0	472	
13	0	0	0	0	464	
14	0	0	0	0	462	
15	0	0	0	0	465	
0	0	0	0	0	470	
1	0	0	0	0	475	
2	0	0	0	0	475	
3	0	0	0	0	472	
4	0	0	0	0	464	
5	0	0	0	0	458	
6	0	0	0	0	457	
7	0	0	0	0	459	
8	0	0	0	0	460	
9	0	0	0	0	464	
10	0	0	0	0	468	
11	0	0	0	0	470	
12	0	0	0	0	467	
13	0	0	0	0	467	
14	0	0	0	0	465	
15	0	0	0	0	468	
0	0	0	0	0	475	
1	0	0	0	0	481	
2	0	0	0	0	483	
3	0	0	0	0	485	
4	0	0	0	0	488	
5	0	0	0	0	490	
6	0	0	0	0	495	
7	0	0	0	0	500	
8	0	0	0	0	499	
9	0	0	0	0	492	
10	0	0	0	0	487	
11	0	0	0	0	487	
12	0	0	0	0	484	
13	0	0	0	0	481	
14	0	0	0	0	483	
15	0	0	0	0	486	
0	0	0	0	0	487	
1	0	0	0	0	484	
2	0	0	0	0	487	
3	0	0	0	0	486	
4	0	0	0	0	483	
5	0	0	0	0	480	
6	0	0	0	0	479	
7	0	0	0	0	479	
8	0	0	0	0	481	
9	0	0	0	0	485	
10	0	0	0	0	495	
11	0	0	0	0	497	
12	0	0	0	0	495	
13	0	0	0	0	496	
14	0	0	0	0	496	
15	0	0	0	0	491	
0	0	0	0	0	487	
1	0	0	0	0	489	
2	0	0	0	0	490	
3	0	0	0	0	491	
4	0	0	0	0	500	
5	0	0	0	0	508	
6	0	0	0	0	506	
7	0	0	0	0	504	
8	0	0	0	0	502	
9	0	0	0	0	500	
10	0	0	0	0	496	
11	0	0	0	0	494	
12	0	0	0	0	491	
13	0	0	0	0	487	
14	0	0	0	0	491	
15	0	0	0	0	500	
0	0	0	0	0	504	
1	0	0	0	0	499	
2	0	0	0	0	493	
3	0	0	0	0	492	
4	0	0	0	0	495	
5	0	0	0	0	496	
6	0	0	0	0	497	
7	0	0	0	0	498	
8	0	0	0	0	496	
9	0	0	0	0	491	
10	0	0	0	0	486	
11	0	0	0	0	484	
12	0	0	0	0	484	
13	0	0	0	0	484	
14	0	0	0	0	487	
15	0	0	0	0	493	
0	0	0	0	0	492	
1	0	0	0	0	497	
2	0	0	0	0	498	
3	0	0	0	0	497	
4	0	0	0	0	497	
5	0	0	0	0	496	
6	0	0	0	0	499	
7	0	0	0	0	500	
8	0	0	0	0	501	
9	0	0	0	0	490	
10	0	0	0	0	489	
11	0	0	0	0	492	
12	0	0	0	0	496	
13	0	0	0	0	503	
14	0	0	0	0	505	
15	0	0	0	0	503	
0	0	0	0	0	499	
1	0	0	0	0	497	
2	0	0	0	0	499	
3	0	0	0	0	501	
4	0	0	0	0	501	
5	0	0	0	0	502	
6	0	0	0	0	502	
7	0	0	0	0	502	
8	0	0	0	0	504	
9	0	0	0	0	504	
10	0	0	0	0	501	
11	0	0	0	0	499	
12	0	0	0	0	503	
13	0	0	0	0	510	
14	0	0	0	0	510	
15	0	0	0	0	504	
0	0	0	0	0	499	
1	0	0	0	0	506	
2	0	0	0	0	500	
3	0	0	0	0	495	
4	0	0	0	0	495	
5	0	0	0	0	493	
6	0	0	0	0	492	
7	0	0	0	0	500	
8	0	0	0	0	508	
9	0	0	0	0	510	
10	0	0	0	0	512	
11	0	0	0	0	511	
12	0	0	0	0	510	
13	0	0	0	0	500	
14	0	0	0	0	490	
15	0	0	0	0	486	
0	0	0	0	0	491	
1	0	0	0	0	495	
2	0	0	0	0	497	
3	0	0	0	0	498	
4	0	0	0	0	500	
5	0	0	0	0	504	
6	0	0	0	0	504	
7	0	0	0	0	506	
8	0	0	0	0	508	
9	0	0	0	0	510	
10	0	0	0	0	511	
11	0	0	0	0	509	
12	0	0	0	0	511	
13	0	0	0	0	504	
14	0	0	0	0	499	
15	0	0	0	0	503	
0	0	0	0	0	508	
1	0	0	0	0	511	
2	0	0	0	0	506	
3	0	0	0	0	502	
4	0	0	0	0	506	
5	0	0	0	0	512	
6	0	0	0	0	512	
7	0	0	0	0	505	
8	0	0	0	0	499	
9	0	0	0	0	501	
10	0	0	0	0	499	
11	0	0	0	0	499	
12	0	0	0	0	502	
13	0	0	0	0	503	
14	0	0	0	0	496	
15	0	0	0	0	493	
0	0	0	0	0	499	
1	0	0	0	0	497	
2	0	0	0	0	491	
3	0	0	0	0	492	
4	0	0	0	0	498	
5	0	0	0	0	500	
6	0	0	0	0	504	
7	0	0	0	0	518	
8	0	0	0	0	527	
9	0	0	0	0	529	
10	0	0	0	0	525	
11	0	0	0	0	517	
12	0	0	0	0	511	
13	0	0	0	0	510	
14	0	0	0	0	513	
15	0	0	0	0	513	
0	0	0	0	0	507	
1	0	0	0	0	503	
2	0	0	0	0	502	
3	0	0	0	0	509	
4	0	0	0	0	515	
5	0	0	0	0	515	
6	0	0	0	0	520	
7	0	0	0	0	517	
8	0	0	0	0	515	
9	0	0	0	0	515	
10	0	0	0	0	514	
11	0	0	0	0	513	
12	0	0	0	0	510	
13	0	0	0	0	502	
14	0	0	0	0	505	
15	0	0	0	0	513	
0	0	0	0	0	519	
1	0	0	0	0	523	
2	0	0	0	0	519	
3	0	0	0	0	510	
4	0	0	0	0	504	
5	0	0	0	0	505	
6	0	0	0	0	507	
7	0	0	0	0	509	
8	0	0	0	0	507	
9	0	0	0	0	504	
10	0	0	0	0	508	
11	0	0	0	0	512	
12	0	0	0	0	512	
13	0	0	0	0	510	
14	0	0	0	0	515	
15	0	0	0	0	520	
0	0	0	0	0	521	
1	0	0	0	0	522	
2	0	0	0	0	519	
3	0	0	0	0	515	
4	0	0	0	0	504	
5	0	0	0	0	498	
6	0	0	0	0	501	
7	0	0	0	0	500	
8	0	0	0	0	503	
9	0	0	0	0	513	
10	0	0	0	0	516	
11	0	0	0	0	522	
12	0	0	0	0	525	
13	0	0	0	0	526	
14	0	0	0	0	523	
15	0	0	0	0	518	
0	0	0	0	0	515	
1	0	0	0	0	510	
2	0	0	0	0	500	
3	0	0	0	0	499	
4	0	0	0	0	501	
5	0	0	0	0	500	
6	0	0	0	0	499	
7	0	0	0	0	496	
8	0	0	0	0	492	
9	0	0	0	0	491	
10	0	0	0	0	494	
11	0	0	0	0	499	
12	0	0	0	0	504	
13	0	0	0	0	508	
14	0	0	0	0	518	
15	0	0	0	0	526	
0	0	0	0	0	530	
1	0	0	0	0	528	
2	0	0	0	0	517	
3	0	0	0	0	518	
4	0	0	0	0	519	
5	0	0	0	0	519	
6	0	0	0	0	520	
7	0	0	0	0	521	
8	0	0	0	0	513	
9	0	0	0	0	504	
10	0	0	0	0	511	
11	0	0	0	0	527	
12	0	0	0	0	531	
13	0	0	0	0	521	
14	0	0	0	0	520	
15	0	0	0	0	527	
0	0	0	0	0	531	
1	0	0	0	0	535	
2	0	0	0	0	534	
3	0	0	0	0	526	
4	0	0	0	0	521	
5	0	0	0	0	521	
6	0	0	0	0	524	
7	0	0	0	0	528	
8	0	0	0	0	524	
9	0	0	0	0	519	
10	0	0	0	0	515	
11	0	0	0	0	510	
12	0	0	0	0	513	
13	0	0	0	0	520	
14	0	0	0	0	527	
15	0	0	0	0	532	
0	0	0	0	0	527	
1	0	0	0	0	515	
2	0	0	0	0	510	
3	0	0	0	0	515	
4	0	0	0	0	521	
5	0	0	0	0	523	
6	0	0	0	0	519	
7	0	0	0	0	514	
8	0	0	0	0	517	
9	0	0	0	0	515	
10	0	0	0	0	516	
11	0	0	0	0	519	
12	0	0	0	0	516	
13	0	0	0	0	511	
14	0	0	0	0	511	
15	0	0	0	0	513	
0	0	0	0	0	507	
1	0	0	0	0	501	
2	0	0	0	0	499	
3	0	0	0	0	498	
4	0	0	0	0	501	
5	0	0	0	0	502	
6	0	0	0	0	505	
7	0	0	0	0	514	
8	0	0	0	0	524	
9	0	0	0	0	531	
10	0	0	0	0	531	
11	0	0	0	0	527	
12	0	0	0	0	525	
13	0	0	0	0	529	
14	0	0	0	0	532	
15	0	0	0	0	536	
0	0	0	0	0	535	
1	0	0	0	0	533	
2	0	0	0	0	529	
3	0	0	0	0	532	
4	0	0	0	0	528	
5	0	0	0	0	523	
6	0	0	0	0	525	
7	0	0	0	0	527	
8	0	0	0	0	526	
9	0	0	0	0	529	
10	0	0	0	0	530	
11	0	0	0	0	537	
12	0	0	0	0	545	
13	0	0	0	0	547	
14	0	0	0	0	546	
15	0	0	0	0	546	
0	0	0	0	0	543	
1	0	0	0	0	534	
2	0	0	0	0	531	
3	0	0	0	0	531	
4	0	0	0	0	532	
5	0	0	0	0	528	
6	0	0	0	0	520	
7	0	0	0	0	520	
8	0	0	0	0	523	
9	0	0	0	0	524	
10	0	0	0	0	528	
11	0	0	0	0	525	
12	0	0	0	0	524	
13	0	0	0	0	511	
14	0	0	0	0	500	
15	0	0	0	0	498	
0	0	0	0	0	503	
1	0	0	0	0	507	
2	0	0	0	0	508	
3	0	0	0	0	509	
4	0	0	0	0	511	
5	0	0	0	0	515	
6	0	0	0	0	509	
7	0	0	0	0	503	
8	0	0	0	0	501	
9	0	0	0	0	505	
10	0	0	0	0	507	
11	0	0	0	0	506	
12	0	0	0	0	508	
13	0	0	0	0	509	
14	0	0	0	0	507	
15	0	0	0	0	504	
0	0	0	0	0	501	
1	0	0	0	0	498	
2	0	0	0	0	499	
3	0	0	0	0	500	
4	0	0	0	0	505	
5	0	0	0	0	504	
6	0	0	0	0	496	
7	0	0	0	0	488	
8	0	0	0	0	489	
9	0	0	0	0	490	
10	0	0	0	0	483	
11	0	0	0	0	480	
12	0	0	0	0	483	
13	0	0	0	0	486	
14	0	0	0	0	494	
15	0	0	0	0	501	
0	0	0	0	0	510	
1	0	0	0	0	513	
2	0	0	0	0	511	
3	0	0	0	0	509	
4	0	0	0	0	508	
5	0	0	0	0	504	
6	0	0	0	0	500	
7	0	0	0	0	505	
8	0	0	0	0	515	
9	0	0	0	0	516	
10	0	0	0	0	506	
11	0	0	0	0	496	
12	0	0	0	0	494	
13	0	0	0	0	495	
14	0	0	0	0	500	
15	0	0	0	0	504	
0	0	0	0	0	502	
1	0	0	0	0	500	
2	0	0	0	0	503	
3	0	0	0	0	508	
4	0	0	0	0	508	
5	0	0	0	0	504	
6	0	0	0	0	500	
7	0	0	0	0	503	
8	0	0	0	0	509	
9	0	0	0	0	510	
10	0	0	0	0	509	
11	0	0	0	0	507	
12	0	0	0	0	498	
13	0	0	0	0	492	
14	0	0	0	0	497	
15	0	0	0	0	499	
0	0	0	0	0	501	
1	0	0	0	0	501	
2	0	0	0	0	499	
3	0	0	0	0	500	
4	0	0	0	0	509	
5	0	0	0	0	513	
6	0	0	0	0	514	
7	0	0	0	0	516	
8	0	0	0	0	512	
9	0	0	0	0	512	
10	0	0	0	0	518	
11	0	0	0	0	520	
12	0	0	0	0	519	
13	0	0	0	0	515	
14	0	0	0	0	507	
15	0	0	0	0	507	
0	0	0	0	0	509	
1	0	0	0	0	510	
2	0	0	0	0	509	
3	0	0	0	0	513	
4	0	0	0	0	520	
5	0	0	0	0	529	
6	0	0	0	0	543	
7	0	0	0	0	560	
8	0	0	0	0	573	
9	0	0	0	0	588	
10	0	0	0	0	601	
11	0	0	0	0	619	
12	0	0	0	0	638	
13	0	0	0	0	665	
14	0	0	0	0	691	
15	0	0	0	0	699	
0	0	0	0	0	707	
1	0	0	0	0	725	
2	0	0	0	0	731	
3	0	0	0	0	739	
4	0	0	0	0	752	
5	0	0	0	0	776	
6	0	0	0	0	797	
7	0	0	0	0	800	
8	0	0	0	0	803	
9	0	0	0	0	801	
10	0	0	0	0	798	
11	0	0	0	0	804	
12	0	0	0	0	799	
13	0	0	0	0	774	
14	0	0	0	0	751	
15	0	0	0	0	728	
0	0	0	0	0	692	
1	0	0	0	0	651	
2	0	0	0	0	606	
3	0	0	0	0	561	
4	0	0	0	0	515	
5	0	0	0	0	460	
6	0	0	0	0	410	
7	0	0	0	0	368	
8	0	0	0	0	338	
9	0	0	0	0	320	
10	0	0	0	0	299	
11	0	0	0	0	281	
12	0	0	0	0	267	
13	0	0	0	0	258	
14	0	0	0	0	260	
15	0	0	0	0	263	
0	0	0	0	0	273	
1	0	0	0	0	273	
2	0	0	0	0	272	
3	0	0	0	0	272	
4	0	0	0	0	272	
5	0	0	0	0	284	
6	0	0	0	0	293	
7	0	0	0	0	300	
8	0	0	0	0	308	
9	0	0	0	0	321	
10	0	0	0	0	329	
11	0	0	0	0	340	
12	0	0	0	0	352	
13	0	0	0	0	357	
14	0	0	0	0	364	
15	0	0	0	0	376	
0	0	0	0	0	392	
1	0	0	0	0	407	
2	0	0	0	0	415	
3	0	0	0	0	427	
4	0	0	0	0	440	
5	0	0	0	0	453	
6	0	0	0	0	457	
7	0	0	0	0	461	
8	0	0	0	0	470	
9	0	0	0	0	479	
10	0	0	0	0	484	
11	0	0	0	0	486	
12	0	0	0	0	495	
13	0	0	0	0	502	
14	0	0	0	0	505	
15	0	0	0	0	505	
0	0	0	0	0	501	
1	0	0	0	0	492	
2	0	0	0	0	493	
3	0	0	0	0	499	
4	0	0	0	0	499	
5	0	0	0	0	505	
6	0	0	0	0	507	
7	0	0	0	0	508	
8	0	0	0	0	508	
9	0	0	0	0	496	
10	0	0	0	0	498	
11	0	0	0	0	511	
12	0	0	0	0	514	
13	0	0	0	0	513	
14	0	0	0	0	521	
15	0	0	0	0	526	
0	0	0	0	0	524	
1	0	0	0	0	521	
2	0	0	0	0	518	
3	0	0	0	0	518	
4	0	0	0	0	518	
5	0	0	0	0	515	
6	0	0	0	0	518	
7	0	0	0	0	514	
8	0	0	0	0	509	
9	0	0	0	0	508	
10	0	0	0	0	500	
11	0	0	0	0	497	
12	0	0	0	0	504	
13	0	0	0	0	514	
14	0	0	0	0	523	
15	0	0	0	0	524	
0	0	0	0	0	525	
1	0	0	0	0	531	
2	0	0	0	0	527	
3	0	0	0	0	523	
4	0	0	0	0	520	
5	0	0	0	0	513	
6	0	0	0	0	506	
7	0	0	0	0	505	
8	0	0	0	0	508	
9	0	0	0	0	504	
10	0	0	0	0	500	
11	0	0	0	0	498	
12	0	0	0	0	501	
13	0	0	0	0	508	
14	0	0	0	0	511	
15	0	0	0	0	516	
0	0	0	0	0	520	
1	0	0	0	0	519	
2	0	0	0	0	515	
3	0	0	0	0	510	
4	0	0	0	0	510	
5	0	0	0	0	514	
6	0	0	0	0	517	
7	0	0	0	0	513	
8	0	0	0	0	510	
9	0	0	0	0	508	
10	0	0	0	0	507	
11	0	0	0	0	517	
12	0	0	0	0	524	
13	0	0	0	0	529	
14	0	0	0	0	536	
15	0	0	0	0	539	
0	0	0	0	0	540	
1	0	0	0	0	541	
2	0	0	0	0	539	
3	0	0	0	0	535	
4	0	0	0	0	527	
5	0	0	0	0	519	
6	0	0	0	0	518	
7	0	0	0	0	521	
8	0	0	0	0	524	
9	0	0	0	0	517	
10	0	0	0	0	513	
11	0	0	0	0	515	
12	0	0	0	0	516	
13	0	0	0	0	509	
14	0	0	0	0	507	
15	0	0	0	0	510	
0	0	0	0	0	513	
1	0	0	0	0	522	
2	0	0	0	0	525	
3	0	0	0	0	530	
4	0	0	0	0	537	
5	0	0	0	0	533	
6	0	0	0	0	526	
7	0	0	0	0	531	
8	0	0	0	0	536	
9	0	0	0	0	534	
10	0	0	0	0	526	
11	0	0	0	0	520	
12	0	0	0	0	517	
13	0	0	0	0	517	
14	0	0	0	0	522	
15	0	0	0	0	521	
0	0	0	0	0	514	
1	0	0	0	0	513	
2	0	0	0	0	519	
3	0	0	0	0	527	
4	0	0	0	0	529	
5	0	0	0	0	521	
6	0	0	0	0	515	
7	0	0	0	0	524	
8	0	0	0	0	533	
9	0	0	0	0	545	
10	0	0	0	0	548	
11	0	0	0	0	546	
12	0	0	0	0	536	
13	0	0	0	0	527	
14	0	0	0	0	522	
15	0	0	0	0	525	
0	0	0	0	0	528	
1	0	0	0	0	530	
2	0	0	0	0	526	
3	0	0	0	0	522	
4	0	0	0	0	529	
5	0	0	0	0	530	
6	0	0	0	0	524	
7	0	0	0	0	525	
8	0	0	0	0	522	
9	0	0	0	0	515	
10	0	0	0	0	513	
11	0	0	0	0	516	
12	0	0	0	0	524	
13	0	0	0	0	534	
14	0	0	0	0	542	
15	0	0	0	0	538	
0	0	0	0	0	531	
1	0	0	0	0	523	
2	0	0	0	0	513	
3	0	0	0	0	513	
4	0	0	0	0	519	
5	0	0	0	0	519	
6	0	0	0	0	516	
7	0	0	0	0	515	
8	0	0	0	0	526	
9	0	0	0	0	537	
10	0	0	0	0	546	
11	0	0	0	0	549	
12	0	0	0	0	546	
13	0	0	0	0	550	
14	0	0	0	0	555	
15	0	0	0	0	556	
0	0	0	0	0	558	
1	0	0	0	0	553	
2	0	0	0	0	545	
3	0	0	0	0	540	
4	0	0	0	0	555	
5	0	0	0	0	565	
6	0	0	0	0	559	
7	0	0	0	0	553	
8	0	0	0	0	554	
9	0	0	0	0	562	
10	0	0	0	0	560	
11	0	0	0	0	560	
12	0	0	0	0	556	
13	0	0	0	0	552	
14	0	0	0	0	554	
15	0	0	0	0	549	
0	0	0	0	0	547	
1	0	0	0	0	548	
2	0	0	0	0	544	
3	0	0	0	0	544	
4	0	0	0	0	548	
5	0	0	0	0	550	
6	0	0	0	0	554	
7	0	0	0	0	555	
8	0	0	0	0	547	
9	0	0	0	0	537	
10	0	0	0	0	540	
11	0	0	0	0	551	
12	0	0	0	0	551	
13	0	0	0	0	546	
14	0	0	0	0	545	
15	0	0	0	0	547	
0	0	0	0	0	559	
1	0	0	0	0	568	
2	0	0	0	0	571	
3	0	0	0	0	569	
4	0	0	0	0	563	
5	0	0	0	0	560	
6	0	0	0	0	556	
7	0	0	0	0	550	
8	0	0	0	0	545	
9	0	0	0	0	547	
10	0	0	0	0	544	
11	0	0	0	0	535	
12	0	0	0	0	530	
13	0	0	0	0	531	
14	0	0	0	0	535	
15	0	0	0	0	535	
0	0	0	0	0	538	
1	0	0	0	0	538	
2	0	0	0	0	536	
3	0	0	0	0	534	
4	0	0	0	0	529	
5	0	0	0	0	522	
6	0	0	0	0	518	
7	0	0	0	0	515	
8	0	0	0	0	517	
9	0	0	0	0	517	
10	0	0	0	0	513	
11	0	0	0	0	535	
12	0	0	0	0	553	
13	0	0	0	0	557	
14	0	0	0	0	546	
15	0	0	0	0	539	
0	0	0	0	0	534	
1	0	0	0	0	523	
2	0	0	0	0	506	
3	0	0	0	0	489	
4	0	0	0	0	483	
5	0	0	0	0	479	
6	0	0	0	0	475	
7	0	0	0	0	478	
8	0	0	0	0	480	
9	0	0	0	0	482	
10	0	0	0	0	482	
11	0	0	0	0	479	
12	0	0	0	0	480	
13	0	0	0	0	484	
14	0	0	0	0	487	
15	0	0	0	0	488	
0	0	0	0	0	487	
1	0	0	0	0	482	
2	0	0	0	0	476	
3	0	0	0	0	480	
4	0	0	0	0	486	
5	0	0	0	0	487	
6	0	0	0	0	476	
7	0	0	0	0	472	
8	0	0	0	0	473	
9	0	0	0	0	477	
10	0	0	0	0	485	
11	0	0	0	0	484	
12	0	0	0	0	482	
13	0	0	0	0	480	
14	0	0	0	0	478	
15	0	0	0	0	475	
0	0	0	0	0	476	
1	0	0	0	0	472	
2	0	0	0	0	464	
3	0	0	0	0	461	
4	0	0	0	0	459	
5	0	0	0	0	459	
6	0	0	0	0	460	
7	0	0	0	0	465	
8	0	0	0	0	475	
9	0	0	0	0	489	
10	0	0	0	0	493	
11	0	0	0	0	480	
12	0	0	0	0	472	
13	0	0	0	0	464	
14	0	0	0	0	460	
15	0	0	0	0	462	
0	0	0	0	0	464	
1	0	0	0	0	464	
2	0	0	0	0	465	
3	0	0	0	0	463	
4	0	0	0	0	463	
5	0	0	0	0	462	
6	0	0	0	0	465	
7	0	0	0	0	464	
8	0	0	0	0	461	
9	0	0	0	0	463	
10	0	0	0	0	469	
11	0	0	0	0	470	
12	0	0	0	0	464	
13	0	0	0	0	461	
14	0	0	0	0	476	
15	0	0	0	0	483	
0	0	0	0	0	481	
1	0	0	0	0	483	
2	0	0	0	0	485	
3	0	0	0	0	487	
4	0	0	0	0	483	
5	0	0	0	0	480	
6	0	0	0	0	481	
7	0	0	0	0	480	
8	0	0	0	0	479	
9	0	0	0	0	474	
10	0	0	0	0	472	
11	0	0	0	0	473	
12	0	0	0	0	474	
13	0	0	0	0	476	
14	0	0	0	0	474	
15	0	0	0	0	475	
0	0	0	0	0	474	
1	0	0	0	0	475	
2	0	0	0	0	471	
3	0	0	0	0	470	
4	0	0	0	0	475	
5	0	0	0	0	479	
6	0	0	0	0	479	
7	0	0	0	0	479	
8	0	0	0	0	481	
9	0	0	0	0	478	
10	0	0	0	0	475	
11	0	0	0	0	473	
12	0	0	0	0	478	
13	0	0	0	0	481	
14	0	0	0	0	484	
15	0	0	0	0	478	
0	0	0	0	0	463	
1	0	0	0	0	463	
2	0	0	0	0	470	
3	0	0	0	0	474	
4	0	0	0	0	476	
5	0	0	0	0	482	
6	0	0	0	0	483	
7	0	0	0	0	482	
8	0	0	0	0	481	
9	0	0	0	0	478	
10	0	0	0	0	474	
11	0	0	0	0	471	
12	0	0	0	0	469	
13	0	0	0	0	465	
14	0	0	0	0	470	
15	0	0	0	0	485	
0	0	0	0	0	486	
1	0	0	0	0	484	
2	0	0	0	0	481	
3	0	0	0	0	483	
4	0	0	0	0	491	
5	0	0	0	0	495	
6	0	0	0	0	499	
7	0	0	0	0	504	
8	0	0	0	0	504	
9	0	0	0	0	496	
10	0	0	0	0	487	
11	0	0	0	0	483	
12	0	0	0	0	476	
13	0	0	0	0	479	
14	0	0	0	0	487	
15	0	0	0	0	485	
0	0	0	0	0	483	
1	0	0	0	0	487	
2	0	0	0	0	492	
3	0	0	0	0	507	
4	0	0	0	0	523	
5	0	0	0	0	528	
6	0	0	0	0	524	
7	0	0	0	0	504	
8	0	0	0	0	487	
9	0	0	0	0	479	
10	0	0	0	0	477	
11	0	0	0	0	472	
12	0	0	0	0	474	
13	0	0	0	0	478	
14	0	0	0	0	484	
15	0	0	0	0	488	
0	0	0	0	0	480	
1	0	0	0	0	472	
2	0	0	0	0	473	
3	0	0	0	0	473	
4	0	0	0	0	481	
5	0	0	0	0	486	
6	0	0	0	0	492	
7	0	0	0	0	497	
8	0	0	0	0	506	
9	0	0	0	0	512	
10	0	0	0	0	511	
11	0	0	0	0	508	
12	0	0	0	0	505	
13	0	0	0	0	502	
14	0	0	0	0	499	
15	0	0	0	0	497	
0	0	0	0	0	498	
1	0	0	0	0	499	
2	0	0	0	0	500	
3	0	0	0	0	499	
4	0	0	0	0	496	
5	0	0	0	0	492	
6	0	0	0	0	492	
7	0	0	0	0	491	
8	0	0	0	0	492	
9	0	0	0	0	489	
10	0	0	0	0	483	
11	0	0	0	0	484	
12	0	0	0	0	482	
13	0	0	0	0	478	
14	0	0	0	0	477	
15	0	0	0	0	484	
0	0	0	0	0	490	
1	0	0	0	0	491	
2	0	0	0	0	487	
3	0	0	0	0	481	
4	0	0	0	0	478	
5	0	0	0	0	476	
6	0	0	0	0	481	
7	0	0	0	0	492	
8	0	0	0	0	502	
9	0	0	0	0	504	
10	0	0	0	0	496	
11	0	0	0	0	484	
12	0	0	0	0	474	
13	0	0	0	0	468	
14	0	0	0	0	472	
15	0	0	0	0	479	
0	0	0	0	0	488	
1	0	0	0	0	493	
2	0	0	0	0	500	
3	0	0	0	0	505	
4	0	0	0	0	512	
5	0	0	0	0	515	
6	0	0	0	0	518	
7	0	0	0	0	515	
8	0	0	0	0	508	
9	0	0	0	0	497	
10	0	0	0	0	491	
11	0	0	0	0	488	
12	0	0	0	0	489	
13	0	0	0	0	479	
14	0	0	0	0	482	
15	0	0	0	0	491	
0	0	0	0	0	497	
1	0	0	0	0	504	
2	0	0	0	0	509	
3	0	0	0	0	511	
4	0	0	0	0	517	
5	0	0	0	0	519	
6	0	0	0	0	523	
7	0	0	0	0	521	
8	0	0	0	0	519	
9	0	0	0	0	508	
10	0	0	0	0	493	
11	0	0	0	0	487	
12	0	0	0	0	487	
13	0	0	0	0	500	
14	0	0	0	0	509	
15	0	0	0	0	513	
0	0	0	0	0	510	
1	0	0	0	0	503	
2	0	0	0	0	501	
3	0	0	0	0	504	
4	0	0	0	0	506	
5	0	0	0	0	504	
6	0	0	0	0	501	
7	0	0	0	0	501	
8	0	0	0	0	500	
9	0	0	0	0	499	
10	0	0	0	0	498	
11	0	0	0	0	500	
12	0	0	0	0	502	
13	0	0	0	0	504	
14	0	0	0	0	505	
15	0	0	0	0	506	
0	0	0	0	0	507	
1	0	0	0	0	504	
2	0	0	0	0	495	
3	0	0	0	0	489	
4	0	0	0	0	494	
5	0	0	0	0	497	
6	0	0	0	0	499	
7	0	0	0	0	499	
8	0	0	0	0	491	
9	0	0	0	0	490	
10	0	0	0	0	499	
11	0	0	0	0	497	
12	0	0	0	0	495	
13	0	0	0	0	496	
14	0	0	0	0	496	
15	0	0	0	0	497	
0	0	0	0	0	498	
1	0	0	0	0	504	
2	0	0	0	0	510	
3	0	0	0	0	506	
4	0	0	0	0	502	
5	0	0	0	0	497	
6	0	0	0	0	497	
7	0	0	0	0	499	
8	0	0	0	0	494	
9	0	0	0	0	488	
10	0	0	0	0	476	
11	0	0	0	0	470	
12	0	0	0	0	472	
13	0	0	0	0	472	
14	0	0	0	0	472	
15	0	0	0	0	473	
0	0	0	0	0	473	
1	0	0	0	0	475	
2	0	0	0	0	471	
3	0	0	0	0	476	
4	0	0	0	0	486	
5	0	0	0	0	495	
6	0	0	0	0	505	
7	0	0	0	0	514	
8	0	0	0	0	520	
9	0	0	0	0	526	
10	0	0	0	0	529	
11	0	0	0	0	526	
12	0	0	0	0	525	
13	0	0	0	0	529	
14	0	0	0	0	535	
15	0	0	0	0	541	
0	0	0	0	0	539	
1	0	0	0	0	528	
2	0	0	0	0	518	
3	0	0	0	0	519	
4	0	0	0	0	521	
5	0	0	0	0	525	
6	0	0	0	0	527	
7	0	0	0	0	527	
8	0	0	0	0	526	
9	0	0	0	0	526	
10	0	0	0	0	525	
11	0	0	0	0	523	
12	0	0	0	0	521	
13	0	0	0	0	517	
14	0	0	0	0	509	
15	0	0	0	0	508	
0	0	0	0	0	511	
1	0	0	0	0	513	
2	0	0	0	0	516	
3	0	0	0	0	517	
4	0	0	0	0	517	
5	0	0	0	0	521	
6	0	0	0	0	515	
7	0	0	0	0	507	
8	0	0	0	0	507	
9	0	0	0	0	510	
10	0	0	0	0	512	
11	0	0	0	0	511	
12	0	0	0	0	510	
13	0	0	0	0	505	
14	0	0	0	0	508	
15	0	0	0	0	519	
0	0	0	0	0	528	
1	0	0	0	0	529	
2	0	0	0	0	525	
3	0	0	0	0	528	
4	0	0	0	0	537	
5	0	0	0	0	534	
6	0	0	0	0	529	
7	0	0	0	0	514	
8	0	0	0	0	503	
9	0	0	0	0	503	
10	0	0	0	0	508	
11	0	0	0	0	517	
12	0	0	0	0	514	
13	0	0	0	0	511	
14	0	0	0	0	515	
15	0	0	0	0	522	
0	0	0	0	0	529	
1	0	0	0	0	540	
2	0	0	0	0	545	
3	0	0	0	0	545	
4	0	0	0	0	544	
5	0	0	0	0	539	
6	0	0	0	0	533	
7	0	0	0	0	537	
8	0	0	0	0	537	
9	0	0	0	0	534	
10	0	0	0	0	526	
11	0	0	0	0	528	
12	0	0	0	0	539	
13	0	0	0	0	555	
14	0	0	0	0	560	
15	0	0	0	0	557	
0	0	0	0	0	555	
1	0	0	0	0	566	
2	0	0	0	0	565	
3	0	0	0	0	551	
4	0	0	0	0	536	
5	0	0	0	0	521	
6	0	0	0	0	525	
7	0	0	0	0	540	
8	0	0	0	0	546	
9	0	0	0	0	541	
10	0	0	0	0	535	
11	0	0	0	0	525	
12	0	0	0	0	522	
13	0	0	0	0	528	
14	0	0	0	0	525	
15	0	0	0	0	519	
0	0	0	0	0	510	
1	0	0	0	0	507	
2	0	0	0	0	498	
3	0	0	0	0	494	
4	0	0	0	0	491	
5	0	0	0	0	492	
6	0	0	0	0	496	
7	0	0	0	0	500	
8	0	0	0	0	507	
9	0	0	0	0	514	
10	0	0	0	0	513	
11	0	0	0	0	502	
12	0	0	0	0	491	
13	0	0	0	0	489	
14	0	0	0	0	499	
15	0	0	0	0	516	
0	0	0	0	0	528	
1	0	0	0	0	536	
2	0	0	0	0	536	
3	0	0	0	0	529	
4	0	0	0	0	528	
5	0	0	0	0	526	
6	0	0	0	0	518	
7	0	0	0	0	513	
8	0	0	0	0	509	
9	0	0	0	0	508	
10	0	0	0	0	516	
11	0	0	0	0	523	
12	0	0	0	0	521	
13	0	0	0	0	516	
14	0	0	0	0	513	
15	0	0	0	0	512	
0	0	0	0	0	525	
1	0	0	0	0	541	
2	0	0	0	0	545	
3	0	0	0	0	535	
4	0	0	0	0	529	
5	0	0	0	0	523	
6	0	0	0	0	519	
7	0	0	0	0	521	
8	0	0	0	0	522	
9	0	0	0	0	520	
10	0	0	0	0	518	
11	0	0	0	0	515	
12	0	0	0	0	515	
13	0	0	0	0	511	
14	0	0	0	0	510	
15	0	0	0	0	510	
0	0	0	0	0	510	
1	0	0	0	0	507	
2	0	0	0	0	514	
3	0	0	0	0	522	
4	0	0	0	0	538	
5	0	0	0	0	545	
6	0	0	0	0	536	
7	0	0	0	0	527	
8	0	0	0	0	519	
9	0	0	0	0	510	
10	0	0	0	0	507	
11	0	0	0	0	505	
12	0	0	0	0	505	
13	0	0	0	0	502	
14	0	0	0	0	508	
15	0	0	0	0	517	
0	0	0	0	0	528	
1	0	0	0	0	539	
2	0	0	0	0	556	
3	0	0	0	0	558	
4	0	0	0	0	549	
5	0	0	0	0	532	
6	0	0	0	0	523	
7	0	0	0	0	529	
8	0	0	0	0	529	
9	0	0	0	0	519	
10	0	0	0	0	509	
11	0	0	0	0	507	
12	0	0	0	0	515	
13	0	0	0	0	521	
14	0	0	0	0	525	
15	0	0	0	0	531	
0	0	0	0	0	536	
1	0	0	0	0	536	
2	0	0	0	0	537	
3	0	0	0	0	538	
4	0	0	0	0	548	
5	0	0	0	0	558	
6	0	0	0	0	568	
7	0	0	0	0	574	
8	0	0	0	0	585	
9	0	0	0	0	601	
10	0	0	0	0	615	
11	0	0	0	0	632	
12	0	0	0	0	655	
13	0	0	0	0	675	
14	0	0	0	0	689	
15	0	0	0	0	696	
0	0	0	0	0	711	
1	0	0	0	0	732	
2	0	0	0	0	750	
3	0	0	0	0	773	
4	0	0	0	0	783	
5	0	0	0	0	789	
6	0	0	0	0	795	
7	0	0	0	0	803	
8	0	0	0	0	816	
9	0	0	0	0	822	
10	0	0	0	0	820	
11	0	0	0	0	811	
12	0	0	0	0	799	
13	0	0	0	0	783	
14	0	0	0	0	763	
15	0	0	0	0	740	
0	0	0	0	0	706	
1	0	0	0	0	666	
2	0	0	0	0	617	
3	0	0	0	0	573	
4	0	0	0	0	535	
5	0	0	0	0	496	
6	0	0	0	0	449	
7	0	0	0	0	395	
8	0	0	0	0	346	
9	0	0	0	0	311	
10	0	0	0	0	296	
11	0	0	0	0	291	
12	0	0	0	0	287	
13	0	0	0	0	280	
14	0	0	0	0	277	
15	0	0	0	0	278	
0	0	0	0	0	279	
1	0	0	0	0	286	
2	0	0	0	0	287	
3	0	0	0	0	291	
4	0	0	0	0	291	
5	0	0	0	0	295	
6	0	0	0	0	306	
7	0	0	0	0	314	
8	0	0	0	0	320	
9	0	0	0	0	326	
10	0	0	0	0	341	
11	0	0	0	0	352	
12	0	0	0	0	364	
13	0	0	0	0	377	
14	0	0	0	0	391	
15	0	0	0	0	410	
0	0	0	0	0	421	
1	0	0	0	0	423	
2	0	0	0	0	429	
3	0	0	0	0	440	
4	0	0	0	0	455	
5	0	0	0	0	471	
6	0	0	0	0	480	
7	0	0	0	0	481	
8	0	0	0	0	483	
9	0	0	0	0	489	
10	0	0	0	0	495	
11	0	0	0	0	504	
12	0	0	0	0	516	
13	0	0	0	0	516	
14	0	0	0	0	514	
15	0	0	0	0	513	
0	0	0	0	0	508	
1	0	0	0	0	501	
2	0	0	0	0	505	
3	0	0	0	0	508	
4	0	0	0	0	513	
5	0	0	0	0	516	
6	0	0	0	0	523	
7	0	0	0	0	530	
8	0	0	0	0	537	
9	0	0	0	0	541	
10	0	0	0	0	536	
11	0	0	0	0	535	
12	0	0	0	0	535	
13	0	0	0	0	531	
14	0	0	0	0	521	
15	0	0	0	0	514	
0	0	0	0	0	502	
1	0	0	0	0	495	
2	0	0	0	0	515	
3	0	0	0	0	537	
4	0	0	0	0	538	
5	0	0	0	0	532	
6	0	0	0	0	532	
7	0	0	0	0	536	
8	0	0	0	0	536	
9	0	0	0	0	543	
10	0	0	0	0	540	
11	0	0	0	0	532	
12	0	0	0	0	527	
13	0	0	0	0	533	
14	0	0	0	0	550	
15	0	0	0	0	558	
0	0	0	0	0	558	
1	0	0	0	0	548	
2	0	0	0	0	537	
3	0	0	0	0	531	
4	0	0	0	0	529	
5	0	0	0	0	530	
6	0	0	0	0	529	
7	0	0	0	0	529	
8	0	0	0	0	531	
9	0	0	0	0	528	
10	0	0	0	0	529	
11	0	0	0	0	527	
12	0	0	0	0	527	
13	0	0	0	0	539	
14	0	0	0	0	546	
15	0	0	0	0	545	
0	0	0	0	0	542	
1	0	0	0	0	540	
2	0	0	0	0	536	
3	0	0	0	0	537	
4	0	0	0	0	538	
5	0	0	0	0	537	
6	0	0	0	0	533	
7	0	0	0	0	533	
8	0	0	0	0	537	
9	0	0	0	0	539	
10	0	0	0	0	536	
11	0	0	0	0	529	
12	0	0	0	0	527	
13	0	0	0	0	532	
14	0	0	0	0	537	
15	0	0	0	0	544	
0	0	0	0	0	546	
1	0	0	0	0	552	
2	0	0	0	0	549	
3	0	0	0	0	542	
4	0	0	0	0	535	
5	0	0	0	0	537	
6	0	0	0	0	537	
7	0	0	0	0	535	
8	0	0	0	0	532	
9	0	0	0	0	534	
10	0	0	0	0	537	
11	0	0	0	0	539	
12	0	0	0	0	538	
13	0	0	0	0	537	
14	0	0	0	0	536	
15	0	0	0	0	535	
0	0	0	0	0	538	
1	0	0	0	0	544	
2	0	0	0	0	555	
3	0	0	0	0	548	
4	0	0	0	0	529	
5	0	0	0	0	519	
6	0	0	0	0	522	
7	0	0	0	0	538	
8	0	0	0	0	549	
9	0	0	0	0	544	
10	0	0	0	0	536	
11	0	0	0	0	537	
12	0	0	0	0	548	
13	0	0	0	0	548	
14	0	0	0	0	539	
15	0	0	0	0	540	
0	0	0	0	0	536	
1	0	0	0	0	533	
2	0	0	0	0	534	
3	0	0	0	0	528	
4	0	0	0	0	519	
5	0	0	0	0	519	
6	0	0	0	0	523	
7	0	0	0	0	527	
8	0	0	0	0	536	
9	0	0	0	0	536	
10	0	0	0	0	537	
11	0	0	0	0	539	
12	0	0	0	0	537	
13	0	0	0	0	531	
14	0	0	0	0	528	
15	0	0	0	0	534	
0	0	0	0	0	546	
1	0	0	0	0	551	
2	0	0	0	0	551	
3	0	0	0	0	551	
4	0	0	0	0	551	
5	0	0	0	0	538	
6	0	0	0	0	531	
7	0	0	0	0	531	
8	0	0	0	0	532	
9	0	0	0	0	533	
10	0	0	0	0	540	
11	0	0	0	0	540	
12	0	0	0	0	537	
13	0	0	0	0	541	
14	0	0	0	0	543	
15	0	0	0	0	537	
0	0	0	0	0	535	
1	0	0	0	0	539	
2	0	0	0	0	535	
3	0	0	0	0	526	
4	0	0	0	0	524	
5	0	0	0	0	527	
6	0	0	0	0	537	
7	0	0	0	0	536	
8	0	0	0	0	533	
9	0	0	0	0	532	
10	0	0	0	0	527	
11	0	0	0	0	526	
12	0	0	0	0	529	
13	0	0	0	0	536	
14	0	0	0	0	538	
15	0	0	0	0	539	
0	0	0	0	0	542	
1	0	0	0	0	545	
2	0	0	0	0	552	
3	0	0	0	0	557	
4	0	0	0	0	551	
5	0	0	0	0	539	
6	0	0	0	0	539	
7	0	0	0	0	543	
8	0	0	0	0	545	
9	0	0	0	0	545	
10	0	0	0	0	542	
11	0	0	0	0	544	
12	0	0	0	0	543	
13	0	0	0	0	549	
14	0	0	0	0	553	
15	0	0	0	0	552	
0	0	0	0	0	550	
1	0	0	0	0	546	
2	0	0	0	0	542	
3	0	0	0	0	543	
4	0	0	0	0	543	
5	0	0	0	0	542	
6	0	0	0	0	540	
7	0	0	0	0	536	
8	0	0	0	0	536	
9	0	0	0	0	531	
10	0	0	0	0	527	
11	0	0	0	0	529	
12	0	0	0	0	538	
13	0	0	0	0	540	
14	0	0	0	0	545	
15	0	0	0	0	539	
0	0	0	0	0	540	
1	0	0	0	0	546	
2	0	0	0	0	547	
3	0	0	0	0	543	
4	0	0	0	0	541	
5	0	0	0	0	539	
6	0	0	0	0	536	
7	0	0	0	0	535	
8	0	0	0	0	535	
9	0	0	0	0	536	
10	0	0	0	0	537	
11	0	0	0	0	539	
12	0	0	0	0	539	
13	0	0	0	0	531	
14	0	0	0	0	526	
15	0	0	0	0	527	
0	0	0	0	0	530	
1	0	0	0	0	532	
2	0	0	0	0	532	
3	0	0	0	0	529	
4	0	0	0	0	527	
5	0	0	0	0	525	
6	0	0	0	0	527	
7	0	0	0	0	529	
8	0	0	0	0	526	
9	0	0	0	0	518	
10	0	0	0	0	508	
11	0	0	0	0	498	
12	0	0	0	0	500	
13	0	0	0	0	505	
14	0	0	0	0	497	
15	0	0	0	0	494	
0	0	0	0	0	492	
1	0	0	0	0	490	
2	0	0	0	0	490	
3	0	0	0	0	496	
4	0	0	0	0	508	
5	0	0	0	0	511	
6	0	0	0	0	505	
7	0	0	0	0	498	
8	0	0	0	0	493	
9	0	0	0	0	482	
10	0	0	0	0	477	
11	0	0	0	0	476	
12	0	0	0	0	472	
13	0	0	0	0	469	
14	0	0	0	0	464	
15	0	0	0	0	461	
0	0	0	0	0	463	
1	0	0	0	0	466	
2	0	0	0	0	462	
3	0	0	0	0	459	
4	0	0	0	0	458	
5	0	0	0	0	457	
6	0	0	0	0	455	
7	0	0	0	0	460	
8	0	0	0	0	468	
9	0	0	0	0	467	
10	0	0	0	0	457	
11	0	0	0	0	455	
12	0	0	0	0	457	
13	0	0	0	0	455	
14	0	0	0	0	455	
15	0	0	0	0	457	
0	0	0	0	0	458	
1	0	0	0	0	454	
2	0	0	0	0	451	
3	0	0	0	0	451	
4	0	0	0	0	449	
5	0	0	0	0	451	
6	0	0	0	0	455	
7	0	0	0	0	452	
8	0	0	0	0	452	
9	0	0	0	0	456	
10	0	0	0	0	460	
11	0	0	0	0	463	
12	0	0	0	0	463	
13	0	0	0	0	464	
14	0	0	0	0	460	
15	0	0	0	0	460	
0	0	0	0	0	465	
1	0	0	0	0	469	
2	0	0	0	0	466	
3	0	0	0	0	459	
4	0	0	0	0	449	
5	0	0	0	0	441	
6	0	0	0	0	444	
7	0	0	0	0	451	
8	0	0	0	0	455	
9	0	0	0	0	455	
10	0	0	0	0	455	
11	0	0	0	0	454	
12	0	0	0	0	458	
13	0	0	0	0	458	
14	0	0	0	0	462	
15	0	0	0	0	466	
0	0	0	0	0	477	
1	0	0	0	0	479	
2	0	0	0	0	473	
3	0	0	0	0	463	
4	0	0	0	0	464	
5	0	0	0	0	465	
6	0	0	0	0	464	
7	0	0	0	0	459	
8	0	0	0	0	456	
9	0	0	0	0	464	
10	0	0	0	0	460	
11	0	0	0	0	454	
12	0	0	0	0	454	
13	0	0	0	0	455	
14	0	0	0	0	454	
15	0	0	0	0	451	
0	0	0	0	0	453	
1	0	0	0	0	452	
2	0	0	0	0	451	
3	0	0	0	0	448	
4	0	0	0	0	448	
5	0	0	0	0	463	
6	0	0	0	0	471	
7	0	0	0	0	473	
8	0	0	0	0	472	
9	0	0	0	0	468	
10	0	0	0	0	465	
11	0	0	0	0	465	
12	0	0	0	0	472	
13	0	0	0	0	479	
14	0	0	0	0	476	
15	0	0	0	0	472	
0	0	0	0	0	470	
1	0	0	0	0	474	
2	0	0	0	0	477	
3	0	0	0	0	479	
4	0	0	0	0	480	
5	0	0	0	0	477	
6	0	0	0	0	477	
7	0	0	0	0	472	
8	0	0	0	0	472	
9	0	0	0	0	477	
10	0	0	0	0	481	
11	0	0	0	0	487	
12	0	0	0	0	479	
13	0	0	0	0	475	
14	0	0	0	0	479	
15	0	0	0	0	482	
0	0	0	0	0	487	
1	0	0	0	0	499	
2	0	0	0	0	508	
3	0	0	0	0	505	
4	0	0	0	0	497	
5	0	0	0	0	489	
6	0	0	0	0	491	
7	0	0	0	0	490	
8	0	0	0	0	486	
9	0	0	0	0	486	
10	0	0	0	0	486	
11	0	0	0	0	486	
12	0	0	0	0	487	
13	0	0	0	0	490	
14	0	0	0	0	491	
15	0	0	0	0	489	
0	0	0	0	0	494	
1	0	0	0	0	496	
2	0	0	0	0	497	
3	0	0	0	0	492	
4	0	0	0	0	487	
5	0	0	0	0	500	
6	0	0	0	0	506	
7	0	0	0	0	500	
8	0	0	0	0	492	
9	0	0	0	0	495	
10	0	0	0	0	497	
11	0	0	0	0	491	
12	0	0	0	0	485	
13	0	0	0	0	481	
14	0	0	0	0	482	
15	0	0	0	0	486	
0	0	0	0	0	490	
1	0	0	0	0	492	
2	0	0	0	0	495	
3	0	0	0	0	492	
4	0	0	0	0	495	
5	0	0	0	0	496	
6	0	0	0	0	495	
7	0	0	0	0	495	
8	0	0	0	0	496	
9	0	0	0	0	497	
10	0	0	0	0	499	
11	0	0	0	0	496	
12	0	0	0	0	497	
13	0	0	0	0	496	
14	0	0	0	0	498	
15	0	0	0	0	500	
0	0	0	0	0	501	
1	0	0	0	0	498	
2	0	0	0	0	497	
3	0	0	0	0	496	
4	0	0	0	0	496	
5	0	0	0	0	499	
6	0	0	0	0	499	
7	0	0	0	0	501	
8	0	0	0	0	507	
9	0	0	0	0	512	
10	0	0	0	0	511	
11	0	0	0	0	513	
12	0	0	0	0	510	
13	0	0	0	0	500	
14	0	0	0	0	491	
15	0	0	0	0	486	
0	0	0	0	0	486	
1	0	0	0	0	492	
2	0	0	0	0	495	
3	0	0	0	0	494	
4	0	0	0	0	492	
5	0	0	0	0	488	
6	0	0	0	0	487	
7	0	0	0	0	483	
8	0	0	0	0	480	
9	0	0	0	0	479	
10	0	0	0	0	490	
11	0	0	0	0	508	
12	0	0	0	0	516	
13	0	0	0	0	511	
14	0	0	0	0	505	
15	0	0	0	0	502	
0	0	0	0	0	500	
1	0	0	0	0	495	
2	0	0	0	0	487	
3	0	0	0	0	483	
4	0	0	0	0	481	
5	0	0	0	0	480	
6	0	0	0	0	483	
7	0	0	0	0	492	
8	0	0	0	0	506	
9	0	0	0	0	510	
10	0	0	0	0	503	
11	0	0	0	0	503	
12	0	0	0	0	505	
13	0	0	0	0	509	
14	0	0	0	0	505	
15	0	0	0	0	501	
0	0	0	0	0	497	
1	0	0	0	0	498	
2	0	0	0	0	499	
3	0	0	0	0	496	
4	0	0	0	0	492	
5	0	0	0	0	491	
6	0	0	0	0	492	
7	0	0	0	0	492	
8	0	0	0	0	496	
9	0	0	0	0	497	
10	0	0	0	0	493	
11	0	0	0	0	493	
12	0	0	0	0	502	
13	0	0	0	0	508	
14	0	0	0	0	512	
15	0	0	0	0	512	
0	0	0	0	0	509	
1	0	0	0	0	508	
2	0	0	0	0	509	
3	0	0	0	0	508	
4	0	0	0	0	506	
5	0	0	0	0	508	
6	0	0	0	0	506	
7	0	0	0	0	508	
8	0	0	0	0	512	
9	0	0	0	0	512	
10	0	0	0	0	510	
11	0	0	0	0	511	
12	0	0	0	0	510	
13	0	0	0	0	510	
14	0	0	0	0	512	
15	0	0	0	0	508	
0	0	0	0	0	511	
1	0	0	0	0	517	
2	0	0	0	0	513	
3	0	0	0	0	511	
4	0	0	0	0	505	
5	0	0	0	0	499	
6	0	0	0	0	492	
7	0	0	0	0	487	
8	0	0	0	0	485	
9	0	0	0	0	483	
10	0	0	0	0	479	
11	0	0	0	0	481	
12	0	0	0	0	487	
13	0	0	0	0	488	
14	0	0	0	0	486	
15	0	0	0	0	493	
0	0	0	0	0	505	
1	0	0	0	0	511	
2	0	0	0	0	510	
3	0	0	0	0	507	
4	0	0	0	0	500	
5	0	0	0	0	492	
6	0	0	0	0	481	
7	0	0	0	0	482	
8	0	0	0	0	487	
9	0	0	0	0	496	
10	0	0	0	0	497	
11	0	0	0	0	498	
12	0	0	0	0	496	
13	0	0	0	0	492	
14	0	0	0	0	494	
15	0	0	0	0	494	
0	0	0	0	0	489	
1	0	0	0	0	483	
2	0	0	0	0	488	
3	0	0	0	0	499	
4	0	0	0	0	499	
5	0	0	0	0	495	
6	0	0	0	0	497	
7	0	0	0	0	496	
8	0	0	0	0	498	
9	0	0	0	0	505	
10	0	0	0	0	511	
11	0	0	0	0	510	
12	0	0	0	0	507	
13	0	0	0	0	504	
14	0	0	0	0	506	
15	0	0	0	0	512	
0	0	0	0	0	516	
1	0	0	0	0	518	
2	0	0	0	0	521	
3	0	0	0	0	521	
4	0	0	0	0	521	
5	0	0	0	0	522	
6	0	0	0	0	526	
7	0	0	0	0	530	
8	0	0	0	0	529	
9	0	0	0	0	526	
10	0	0	0	0	522	
11	0	0	0	0	519	
12	0	0	0	0	518	
13	0	0	0	0	519	
14	0	0	0	0	521	
15	0	0	0	0	520	
0	0	0	0	0	519	
1	0	0	0	0	519	
2	0	0	0	0	519	
3	0	0	0	0	519	
4	0	0	0	0	520	
5	0	0	0	0	519	
6	0	0	0	0	519	
7	0	0	0	0	521	
8	0	0	0	0	526	
9	0	0	0	0	531	
10	0	0	0	0	528	
11	0	0	0	0	532	
12	0	0	0	0	532	
13	0	0	0	0	528	
14	0	0	0	0	528	
15	0	0	0	0	522	
0	0	0	0	0	515	
1	0	0	0	0	512	
2	0	0	0	0	509	
3	0	0	0	0	507	
4	0	0	0	0	507	
5	0	0	0	0	511	
6	0	0	0	0	505	
7	0	0	0	0	496	
8	0	0	0	0	484	
9	0	0	0	0	481	
10	0	0	0	0	478	
11	0	0	0	0	478	
12	0	0	0	0	481	
13	0	0	0	0	491	
14	0	0	0	0	491	
15	0	0	0	0	493	
0	0	0	0	0	499	
1	0	0	0	0	507	
2	0	0	0	0	505	
3	0	0	0	0	496	
4	0	0	0	0	490	
5	0	0	0	0	491	
6	0	0	0	0	491	
7	0	0	0	0	490	
8	0	0	0	0	494	
9	0	0	0	0	504	
10	0	0	0	0	506	
11	0	0	0	0	503	
12	0	0	0	0	489	
13	0	0	0	0	486	
14	0	0	0	0	494	
15	0	0	0	0	502	
0	0	0	0	0	500	
1	0	0	0	0	495	
2	0	0	0	0	496	
3	0	0	0	0	500	
4	0	0	0	0	503	
5	0	0	0	0	505	
6	0	0	0	0	506	
7	0	0	0	0	505	
8	0	0	0	0	507	
9	0	0	0	0	502	
10	0	0	0	0	500	
11	0	0	0	0	497	
12	0	0	0	0	496	
13	0	0	0	0	496	
14	0	0	0	0	500	
15	0	0	0	0	509	
0	0	0	0	0	507	
1	0	0	0	0	502	
2	0	0	0	0	495	
3	0	0	0	0	488	
4	0	0	0	0	484	
5	0	0	0	0	482	
6	0	0	0	0	486	
7	0	0	0	0	490	
8	0	0	0	0	495	
9	0	0	0	0	497	
10	0	0	0	0	503	
11	0	0	0	0	505	
12	0	0	0	0	508	
13	0	0	0	0	510	
14	0	0	0	0	505	
15	0	0	0	0	507	
0	0	0	0	0	512	
1	0	0	0	0	508	
2	0	0	0	0	500	
3	0	0	0	0	495	
4	0	0	0	0	495	
5	0	0	0	0	502	
6	0	0	0	0	509	
7	0	0	0	0	516	
8	0	0	0	0	518	
9	0	0	0	0	515	
10	0	0	0	0	510	
11	0	0	0	0	510	
12	0	0	0	0	512	
13	0	0	0	0	516	
14	0	0	0	0	517	
15	0	0	0	0	516	
0	0	0	0	0	510	
1	0	0	0	0	503	
2	0	0	0	0	499	
3	0	0	0	0	511	
4	0	0	0	0	520	
5	0	0	0	0	518	
6	0	0	0	0	512	
7	0	0	0	0	516	
8	0	0	0	0	528	
9	0	0	0	0	539	
10	0	0	0	0	555	
11	0	0	0	0	568	
12	0	0	0	0	574	
13	0	0	0	0	589	
14	0	0	0	0	604	
15	0	0	0	0	618	
0	0	0	0	0	635	
1	0	0	0	0	653	
2	0	0	0	0	668	
3	0	0	0	0	681	
4	0	0	0	0	695	
5	0	0	0	0	710	
6	0	0	0	0	727	
7	0	0	0	0	746	
8	0	0	0	0	764	
9	0	0	0	0	779	
10	0	0	0	0	792	
11	0	0	0	0	798	
12	0	0	0	0	804	
13	0	0	0	0	809	
14	0	0	0	0	810	
15	0	0	0	0	804	
0	0	0	0	0	795	
1	0	0	0	0	781	
2	0	0	0	0	765	
3	0	0	0	0	745	
4	0	0	0	0	715	
5	0	0	0	0	677	
6	0	0	0	0	638	
7	0	0	0	0	595	
8	0	0	0	0	544	
9	0	0	0	0	487	
10	0	0	0	0	436	
11	0	0	0	0	402	
12	0	0	0	0	375	
13	0	0	0	0	343	
14	0	0	0	0	308	
15	0	0	0	0	283	
0	0	0	0	0	278	
1	0	0	0	0	277	
2	0	0	0	0	275	
3	0	0	0	0	278	
4	0	0	0	0	281	
5	0	0	0	0	281	
6	0	0	0	0	266	
7	0	0	0	0	255	
8	0	0	0	0	250	
9	0	0	0	0	250	
10	0	0	0	0	259	
11	0	0	0	0	271	
12	0	0	0	0	283	
13	0	0	0	0	302	
14	0	0	0	0	318	
15	0	0	0	0	337	
0	0	0	0	0	351	
1	0	0	0	0	367	
2	0	0	0	0	377	
3	0	0	0	0	380	
4	0	0	0	0	387	
5	0	0	0	0	394	
6	0	0	0	0	407	
7	0	0	0	0	425	
8	0	0	0	0	449	
9	0	0	0	0	477	
10	0	0	0	0	499	
11	0	0	0	0	506	
12	0	0	0	0	496	
13	0	0	0	0	484	
14	0	0	0	0	483	
15	0	0	0	0	484	
0	0	0	0	0	491	
1	0	0	0	0	499	
2	0	0	0	0	502	
3	0	0	0	0	502	
4	0	0	0	0	504	
5	0	0	0	0	501	
6	0	0	0	0	502	
7	0	0	0	0	508	
8	0	0	0	0	512	
9	0	0	0	0	513	
10	0	0	0	0	514	
11	0	0	0	0	513	
12	0	0	0	0	513	
13	0	0	0	0	512	
14	0	0	0	0	508	
15	0	0	0	0	503	
0	0	0	0	0	489	
1	0	0	0	0	487	
2	0	0	0	0	496	
3	0	0	0	0	505	
4	0	0	0	0	513	
5	0	0	0	0	515	
6	0	0	0	0	515	
7	0	0	0	0	519	
8	0	0	0	0	524	
9	0	0	0	0	529	
10	0	0	0	0	529	
11	0	0	0	0	525	
12	0	0	0	0	524	
13	0	0	0	0	519	
14	0	0	0	0	516	
15	0	0	0	0	514	
0	0	0	0	0	514	
1	0	0	0	0	515	
2	0	0	0	0	518	
3	0	0	0	0	515	
4	0	0	0	0	513	
5	0	0	0	0	510	
6	0	0	0	0	505	
7	0	0	0	0	506	
8	0	0	0	0	515	
9	0	0	0	0	522	
10	0	0	0	0	521	
11	0	0	0	0	518	
12	0	0	0	0	520	
13	0	0	0	0	529	
14	0	0	0	0	530	
15	0	0	0	0	525	
0	0	0	0	0	519	
1	0	0	0	0	517	
2	0	0	0	0	516	
3	0	0	0	0	519	
4	0	0	0	0	525	
5	0	0	0	0	528	
6	0	0	0	0	531	
7	0	0	0	0	534	
8	0	0	0	0	534	
9	0	0	0	0	528	
10	0	0	0	0	523	
11	0	0	0	0	519	
12	0	0	0	0	523	
13	0	0	0	0	527	
14	0	0	0	0	521	
15	0	0	0	0	520	
0	0	0	0	0	524	
1	0	0	0	0	525	
2	0	0	0	0	528	
3	0	0	0	0	524	
4	0	0	0	0	523	
5	0	0	0	0	523	
6	0	0	0	0	524	
7	0	0	0	0	526	
8	0	0	0	0	527	
9	0	0	0	0	519	
10	0	0	0	0	508	
11	0	0	0	0	507	
12	0	0	0	0	509	
13	0	0	0	0	520	
14	0	0	0	0	516	
15	0	0	0	0	513	
0	0	0	0	0	521	
1	0	0	0	0	536	
2	0	0	0	0	531	
3	0	0	0	0	527	
4	0	0	0	0	531	
5	0	0	0	0	536	
6	0	0	0	0	540	
7	0	0	0	0	536	
8	0	0	0	0	527	
9	0	0	0	0	520	
10	0	0	0	0	521	
11	0	0	0	0	520	
12	0	0	0	0	519	
13	0	0	0	0	518	
14	0	0	0	0	520	
15	0	0	0	0	526	
0	0	0	0	0	527	
1	0	0	0	0	526	
2	0	0	0	0	530	
3	0	0	0	0	535	
4	0	0	0	0	529	
5	0	0	0	0	525	
6	0	0	0	0	525	
7	0	0	0	0	529	
8	0	0	0	0	535	
9	0	0	0	0	534	
10	0	0	0	0	533	
11	0	0	0	0	533	
12	0	0	0	0	534	
13	0	0	0	0	531	
14	0	0	0	0	528	
15	0	0	0	0	524	
0	0	0	0	0	522	
1	0	0	0	0	521	
2	0	0	0	0	527	
3	0	0	0	0	528	
4	0	0	0	0	524	
5	0	0	0	0	526	
6	0	0	0	0	528	
7	0	0	0	0	543	
8	0	0	0	0	549	
9	0	0	0	0	556	
10	0	0	0	0	555	
11	0	0	0	0	556	
12	0	0	0	0	555	
13	0	0	0	0	550	
14	0	0	0	0	545	
15	0	0	0	0	538	
0	0	0	0	0	537	
1	0	0	0	0	539	
2	0	0	0	0	536	
3	0	0	0	0	537	
4	0	0	0	0	536	
5	0	0	0	0	535	
6	0	0	0	0	536	
7	0	0	0	0	541	
8	0	0	0	0	548	
9	0	0	0	0	550	
10	0	0	0	0	548	
11	0	0	0	0	544	
12	0	0	0	0	540	
13	0	0	0	0	534	
14	0	0	0	0	534	
15	0	0	0	0	534	
0	0	0	0	0	540	
1	0	0	0	0	547	
2	0	0	0	0	557	
3	0	0	0	0	561	
4	0	0	0	0	561	
5	0	0	0	0	559	
6	0	0	0	0	561	
7	0	0	0	0	560	
8	0	0	0	0	555	
9	0	0	0	0	559	
10	0	0	0	0	563	
11	0	0	0	0	567	
12	0	0	0	0	568	
13	0	0	0	0	567	
14	0	0	0	0	575	
15	0	0	0	0	579	
0	0	0	0	0	567	
1	0	0	0	0	563	
2	0	0	0	0	569	
3	0	0	0	0	567	
4	0	0	0	0	563	
5	0	0	0	0	560	
6	0	0	0	0	568	
7	0	0	0	0	572	
8	0	0	0	0	566	
9	0	0	0	0	561	
10	0	0	0	0	560	
11	0	0	0	0	560	
12	0	0	0	0	562	
13	0	0	0	0	569	
14	0	0	0	0	568	
15	0	0	0	0	568	
0	0	0	0	0	569	
1	0	0	0	0	569	
2	0	0	0	0	566	
3	0	0	0	0	562	
4	0	0	0	0	556	
5	0	0	0	0	554	
6	0	0	0	0	553	
7	0	0	0	0	552	
8	0	0	0	0	550	
9	0	0	0	0	551	
10	0	0	0	0	551	
11	0	0	0	0	549	
12	0	0	0	0	547	
13	0	0	0	0	546	
14	0	0	0	0	545	
15	0	0	0	0	549	
0	0	0	0	0	549	
1	0	0	0	0	548	
2	0	0	0	0	543	
3	0	0	0	0	539	
4	0	0	0	0	541	
5	0	0	0	0	545	
6	0	0	0	0	543	
7	0	0	0	0	537	
8	0	0	0	0	530	
9	0	0	0	0	528	
10	0	0	0	0	528	
11	0	0	0	0	528	
12	0	0	0	0	526	
13	0	0	0	0	523	
14	0	0	0	0	528	
15	0	0	0	0	536	
0	0	0	0	0	536	
1	0	0	0	0	527	
2	0	0	0	0	519	
3	0	0	0	0	514	
4	0	0	0	0	505	
5	0	0	0	0	499	
6	0	0	0	0	497	
7	0	0	0	0	497	
8	0	0	0	0	497	
9	0	0	0	0	496	
10	0	0	0	0	498	
11	0	0	0	0	500	
12	0	0	0	0	504	
13	0	0	0	0	499	
14	0	0	0	0	495	
15	0	0	0	0	499	
0	0	0	0	0	494	
1	0	0	0	0	486	
2	0	0	0	0	481	
3	0	0	0	0	484	
4	0	0	0	0	479	
5	0	0	0	0	474	
6	0	0	0	0	475	
7	0	0	0	0	476	
8	0	0	0	0	475	
9	0	0	0	0	478	
10	0	0	0	0	479	
11	0	0	0	0	483	
12	0	0	0	0	485	
13	0	0	0	0	480	
14	0	0	0	0	475	
15	0	0	0	0	467	
0	0	0	0	0	462	
1	0	0	0	0	453	
2	0	0	0	0	452	
3	0	0	0	0	457	
4	0	0	0	0	453	
5	0	0	0	0	446	
6	0	0	0	0	444	
7	0	0	0	0	448	
8	0	0	0	0	456	
9	0	0	0	0	461	
10	0	0	0	0	462	
11	0	0	0	0	460	
12	0	0	0	0	458	
13	0	0	0	0	460	
14	0	0	0	0	464	
15	0	0	0	0	464	
0	0	0	0	0	463	
1	0	0	0	0	465	
2	0	0	0	0	470	
3	0	0	0	0	474	
4	0	0	0	0	469	
5	0	0	0	0	466	
6	0	0	0	0	466	
7	0	0	0	0	466	
8	0	0	0	0	462	
9	0	0	0	0	460	
10	0	0	0	0	464	
11	0	0	0	0	471	
12	0	0	0	0	477	
13	0	0	0	0	476	
14	0	0	0	0	470	
15	0	0	0	0	468	
0	0	0	0	0	471	
1	0	0	0	0	472	
2	0	0	0	0	467	
3	0	0	0	0	461	
4	0	0	0	0	464	
5	0	0	0	0	467	
6	0	0	0	0	463	
7	0	0	0	0	459	
8	0	0	0	0	458	
9	0	0	0	0	464	
10	0	0	0	0	475	
11	0	0	0	0	477	
12	0	0	0	0	473	
13	0	0	0	0	473	
14	0	0	0	0	473	
15	0	0	0	0	476	
0	0	0	0	0	475	
1	0	0	0	0	474	
2	0	0	0	0	473	
3	0	0	0	0	478	
4	0	0	0	0	474	
5	0	0	0	0	475	
6	0	0	0	0	483	
7	0	0	0	0	487	
8	0	0	0	0	487	
9	0	0	0	0	491	
10	0	0	0	0	493	
11	0	0	0	0	491	
12	0	0	0	0	485	
13	0	0	0	0	481	
14	0	0	0	0	479	
15	0	0	0	0	481	
0	0	0	0	0	481	
1	0	0	0	0	476	
2	0	0	0	0	482	
3	0	0	0	0	488	
4	0	0	0	0	492	
5	0	0	0	0	489	
6	0	0	0	0	488	
7	0	0	0	0	492	
8	0	0	0	0	498	
9	0	0	0	0	500	
10	0	0	0	0	502	
11	0	0	0	0	495	
12	0	0	0	0	487	
13	0	0	0	0	484	
14	0	0	0	0	488	
15	0	0	0	0	492	
0	0	0	0	0	491	
1	0	0	0	0	489	
2	0	0	0	0	493	
3	0	0	0	0	498	
4	0	0	0	0	497	
5	0	0	0	0	489	
6	0	0	0	0	487	
7	0	0	0	0	485	
8	0	0	0	0	481	
9	0	0	0	0	487	
10	0	0	0	0	491	
11	0	0	0	0	497	
12	0	0	0	0	496	
13	0	0	0	0	491	
14	0	0	0	0	488	
15	0	0	0	0	487	
0	0	0	0	0	488	
1	0	0	0	0	490	
2	0	0	0	0	490	
3	0	0	0	0	486	
4	0	0	0	0	494	
5	0	0	0	0	504	
6	0	0	0	0	507	
7	0	0	0	0	509	
8	0	0	0	0	507	
9	0	0	0	0	500	
10	0	0	0	0	496	
11	0	0	0	0	499	
12	0	0	0	0	500	
13	0	0	0	0	502	
14	0	0	0	0	508	
15	0	0	0	0	508	
0	0	0	0	0	503	
1	0	0	0	0	496	
2	0	0	0	0	492	
3	0	0	0	0	491	
4	0	0	0	0	486	
5	0	0	0	0	484	
6	0	0	0	0	488	
7	0	0	0	0	488	
8	0	0	0	0	489	
9	0	0	0	0	491	
10	0	0	0	0	488	
11	0	0	0	0	491	
12	0	0	0	0	496	
13	0	0	0	0	500	
14	0	0	0	0	507	
15	0	0	0	0	504	
0	0	0	0	0	501	
1	0	0	0	0	503	
2	0	0	0	0	506	
3	0	0	0	0	506	
4	0	0	0	0	505	
5	0	0	0	0	505	
6	0	0	0	0	500	
7	0	0	0	0	497	
8	0	0	0	0	494	
9	0	0	0	0	499	
10	0	0	0	0	499	
11	0	0	0	0	503	
12	0	0	0	0	512	
13	0	0	0	0	519	
14	0	0	0	0	524	
15	0	0	0	0	531	
0	0	0	0	0	521	
1	0	0	0	0	511	
2	0	0	0	0	508	
3	0	0	0	0	504	
4	0	0	0	0	503	
5	0	0	0	0	504	
6	0	0	0	0	507	
7	0	0	0	0	510	
8	0	0	0	0	509	
9	0	0	0	0	508	
10	0	0	0	0	507	
11	0	0	0	0	509	
12	0	0	0	0	513	
13	0	0	0	0	511	
14	0	0	0	0	505	
15	0	0	0	0	499	
0	0	0	0	0	501	
1	0	0	0	0	507	
2	0	0	0	0	507	
3	0	0	0	0	505	
4	0	0	0	0	505	
5	0	0	0	0	511	
6	0	0	0	0	511	
7	0	0	0	0	504	
8	0	0	0	0	502	
9	0	0	0	0	504	
10	0	0	0	0	503	
11	0	0	0	0	499	
12	0	0	0	0	492	
13	0	0	0	0	491	
14	0	0	0	0	498	
15	0	0	0	0	508	
0	0	0	0	0	512	
1	0	0	0	0	519	
2	0	0	0	0	517	
3	0	0	0	0	511	
4	0	0	0	0	512	
5	0	0	0	0	515	
6	0	0	0	0	515	
7	0	0	0	0	509	
8	0	0	0	0	501	
9	0	0	0	0	500	
10	0	0	0	0	497	
11	0	0	0	0	496	
12	0	0	0	0	492	
13	0	0	0	0	488	
14	0	0	0	0	488	
15	0	0	0	0	485	
0	0	0	0	0	489	
1	0	0	0	0	505	
2	0	0	0	0	512	
3	0	0	0	0	514	
4	0	0	0	0	514	
5	0	0	0	0	513	
6	0	0	0	0	513	
7	0	0	0	0	513	
8	0	0	0	0	510	
9	0	0	0	0	513	
10	0	0	0	0	519	
11	0	0	0	0	517	
12	0	0	0	0	510	
13	0	0	0	0	504	
14	0	0	0	0	503	
15	0	0	0	0	501	
0	0	0	0	0	505	
1	0	0	0	0	513	
2	0	0	0	0	515	
3	0	0	0	0	518	
4	0	0	0	0	517	
5	0	0	0	0	516	
6	0	0	0	0	513	
7	0	0	0	0	513	
8	0	0	0	0	514	
9	0	0	0	0	515	
10	0	0	0	0	513	
11	0	0	0	0	517	
12	0	0	0	0	518	
13	0	0	0	0	519	
14	0	0	0	0	523	
15	0	0	0	0	522	
0	0	0	0	0	519	
1	0	0	0	0	514	
2	0	0	0	0	515	
3	0	0	0	0	518	
4	0	0	0	0	518	
5	0	0	0	0	518	
6	0	0	0	0	522	
7	0	0	0	0	526	
8	0	0	0	0	534	
9	0	0	0	0	540	
10	0	0	0	0	543	
11	0	0	0	0	540	
12	0	0	0	0	531	
13	0	0	0	0	523	
14	0	0	0	0	515	
15	0	0	0	0	519	
0	0	0	0	0	525	
1	0	0	0	0	531	
2	0	0	0	0	535	
3	0	0	0	0	533	
4	0	0	0	0	530	
5	0	0	0	0	531	
6	0	0	0	0	533	
7	0	0	0	0	536	
8	0	0	0	0	537	
9	0	0	0	0	529	
10	0	0	0	0	516	
11	0	0	0	0	511	
12	0	0	0	0	510	
13	0	0	0	0	512	
14	0	0	0	0	514	
15	0	0	0	0	511	
0	0	0	0	0	503	
1	0	0	0	0	497	
2	0	0	0	0	499	
3	0	0	0	0	502	
4	0	0	0	0	501	
5	0	0	0	0	496	
6	0	0	0	0	496	
7	0	0	0	0	496	
8	0	0	0	0	495	
9	0	0	0	0	495	
10	0	0	0	0	495	
11	0	0	0	0	493	
12	0	0	0	0	496	
13	0	0	0	0	495	
14	0	0	0	0	496	
15	0	0	0	0	498	
0	0	0	0	0	503	
1	0	0	0	0	507	
2	0	0	0	0	497	
3	0	0	0	0	485	
4	0	0	0	0	485	
5	0	0	0	0	493	
6	0	0	0	0	499	
7	0	0	0	0	504	
8	0	0	0	0	508	
9	0	0	0	0	512	
10	0	0	0	0	508	
11	0	0	0	0	506	
12	0	0	0	0	498	
13	0	0	0	0	492	
14	0	0	0	0	494	
15	0	0	0	0	494	
0	0	0	0	0	496	
1	0	0	0	0	499	
2	0	0	0	0	497	
3	0	0	0	0	495	
4	0	0	0	0	496	
5	0	0	0	0	494	
6	0	0	0	0	492	
7	0	0	0	0	494	
8	0	0	0	0	497	
9	0	0	0	0	501	
10	0	0	0	0	498	
11	0	0	0	0	496	
12	0	0	0	0	495	
13	0	0	0	0	496	
14	0	0	0	0	499	
15	0	0	0	0	505	
0	0	0	0	0	505	
1	0	0	0	0	505	
2	0	0	0	0	506	
3	0	0	0	0	508	
4	0	0	0	0	507	
5	0	0	0	0	505	
6	0	0	0	0	508	
7	0	0	0	0	506	
8	0	0	0	0	505	
9	0	0	0	0	508	
10	0	0	0	0	505	
11	0	0	0	0	499	
12	0	0	0	0	498	
13	0	0	0	0	500	
14	0	0	0	0	504	
15	0	0	0	0	498	
0	0	0	0	0	496	
1	0	0	0	0	493	
2	0	0	0	0	489	
3	0	0	0	0	489	
4	0	0	0	0	486	
5	0	0	0	0	485	
6	0	0	0	0	483	
7	0	0	0	0	486	
8	0	0	0	0	493	
9	0	0	0	0	506	
10	0	0	0	0	511	
11	0	0	0	0	514	
12	0	0	0	0	512	
13	0	0	0	0	513	
14	0	0	0	0	518	
15	0	0	0	0	520	
0	0	0	0	0	518	
1	0	0	0	0	514	
2	0	0	0	0	513	
3	0	0	0	0	511	
4	0	0	0	0	514	
5	0	0	0	0	515	
6	0	0	0	0	515	
7	0	0	0	0	515	
8	0	0	0	0	514	
9	0	0	0	0	515	
10	0	0	0	0	521	
11	0	0	0	0	527	
12	0	0	0	0	535	
13	0	0	0	0	541	
14	0	0	0	0	550	
15	0	0	0	0	567	
0	0	0	0	0	584	
1	0	0	0	0	600	
2	0	0	0	0	620	
3	0	0	0	0	638	
4	0	0	0	0	658	
5	0	0	0	0	676	
6	0	0	0	0	694	
7	0	0	0	0	711	
8	0	0	0	0	716	
9	0	0	0	0	719	
10	0	0	0	0	727	
11	0	0	0	0	748	
12	0	0	0	0	764	
13	0	0	0	0	778	
14	0	0	0	0	787	
15	0	0	0	0	803	
0	0	0	0	0	814	
1	0	0	0	0	825	
2	0	0	0	0	823	
3	0	0	0	0	804	
4	0	0	0	0	781	
5	0	0	0	0	762	
6	0	0	0	0	744	
7	0	0	0	0	718	
8	0	0	0	0	680	
9	0	0	0	0	632	
10	0	0	0	0	579	
11	0	0	0	0	525	
12	0	0	0	0	473	
13	0	0	0	0	428	
14	0	0	0	0	384	
15	0	0	0	0	346	
0	0	0	0	0	315	
1	0	0	0	0	288	
2	0	0	0	0	272	
3	0	0	0	0	258	
4	0	0	0	0	248	
5	0	0	0	0	238	
6	0	0	0	0	232	
7	0	0	0	0	234	
8	0	0	0	0	245	
9	0	0	0	0	252	
10	0	0	0	0	254	
11	0	0	0	0	263	
12	0	0	0	0	271	
13	0	0	0	0	274	
14	0	0	0	0	282	
15	0	0	0	0	293	
0	0	0	0	0	305	
1	0	0	0	0	316	
2	0	0	0	0	332	
3	0	0	0	0	344	
4	0	0	0	0	359	
5	0	0	0	0	374	
6	0	0	0	0	384	
7	0	0	0	0	399	
8	0	0	0	0	413	
9	0	0	0	0	428	
10	0	0	0	0	444	
11	0	0	0	0	453	
12	0	0	0	0	451	
13	0	0	0	0	455	
14	0	0	0	0	462	
15	0	0	0	0	463	
0	0	0	0	0	467	
1	0	0	0	0	478	
2	0	0	0	0	484	
3	0	0	0	0	496	
4	0	0	0	0	508	
5	0	0	0	0	510	
6	0	0	0	0	508	
7	0	0	0	0	505	
8	0	0	0	0	504	
9	0	0	0	0	502	
10	0	0	0	0	507	
11	0	0	0	0	512	
12	0	0	0	0	511	
13	0	0	0	0	508	
14	0	0	0	0	509	
15	0	0	0	0	511	
0	0	0	0	0	512	
1	0	0	0	0	511	
2	0	0	0	0	511	
3	0	0	0	0	512	
4	0	0	0	0	512	
5	0	0	0	0	514	
6	0	0	0	0	522	
7	0	0	0	0	523	
8	0	0	0	0	526	
9	0	0	0	0	519	
10	0	0	0	0	504	
11	0	0	0	0	496	
12	0	0	0	0	497	
13	0	0	0	0	501	
14	0	0	0	0	498	
15	0	0	0	0	498	
0	0	0	0	0	504	
1	0	0	0	0	505	
2	0	0	0	0	504	
3	0	0	0	0	504	
4	0	0	0	0	508	
5	0	0	0	0	506	
6	0	0	0	0	510	
7	0	0	0	0	513	
8	0	0	0	0	512	
9	0	0	0	0	509	
10	0	0	0	0	504	
11	0	0	0	0	505	
12	0	0	0	0	507	
13	0	0	0	0	504	
14	0	0	0	0	508	
15	0	0	0	0	511	
0	0	0	0	0	512	
1	0	0	0	0	514	
2	0	0	0	0	519	
3	0	0	0	0	520	
4	0	0	0	0	519	
5	0	0	0	0	519	
6	0	0	0	0	526	
7	0	0	0	0	533	
8	0	0	0	0	531	
9	0	0	0	0	525	
10	0	0	0	0	521	
11	0	0	0	0	522	
12	0	0	0	0	521	
13	0	0	0	0	526	
14	0	0	0	0	523	
15	0	0	0	0	518	
0	0	0	0	0	516	
1	0	0	0	0	521	
2	0	0	0	0	524	
3	0	0	0	0	523	
4	0	0	0	0	519	
5	0	0	0	0	521	
6	0	0	0	0	526	
7	0	0	0	0	526	
8	0	0	0	0	526	
9	0	0	0	0	523	
10	0	0	0	0	521	
11	0	0	0	0	518	
12	0	0	0	0	521	
13	0	0	0	0	523	
14	0	0	0	0	523	
15	0	0	0	0	529	
0	0	0	0	0	536	
1	0	0	0	0	535	
2	0	0	0	0	538	
3	0	0	0	0	535	
4	0	0	0	0	534	
5	0	0	0	0	532	
6	0	0	0	0	533	
7	0	0	0	0	531	
8	0	0	0	0	528	
9	0	0	0	0	524	
10	0	0	0	0	522	
11	0	0	0	0	524	
12	0	0	0	0	532	
13	0	0	0	0	537	
14	0	0	0	0	540	
15	0	0	0	0	546	
0	0	0	0	0	548	
1	0	0	0	0	543	
2	0	0	0	0	540	
3	0	0	0	0	539	
4	0	0	0	0	534	
5	0	0	0	0	536	
6	0	0	0	0	537	
7	0	0	0	0	538	
8	0	0	0	0	537	
9	0	0	0	0	535	
10	0	0	0	0	534	
11	0	0	0	0	534	
12	0	0	0	0	530	
13	0	0	0	0	529	
14	0	0	0	0	530	
15	0	0	0	0	531	
0	0	0	0	0	532	
1	0	0	0	0	537	
2	0	0	0	0	537	
3	0	0	0	0	536	
4	0	0	0	0	539	
5	0	0	0	0	547	
6	0	0	0	0	547	
7	0	0	0	0	542	
8	0	0	0	0	543	
9	0	0	0	0	544	
10	0	0	0	0	546	
11	0	0	0	0	546	
12	0	0	0	0	546	
13	0	0	0	0	543	
14	0	0	0	0	548	
15	0	0	0	0	547	
0	0	0	0	0	542	
1	0	0	0	0	537	
2	0	0	0	0	538	
3	0	0	0	0	544	
4	0	0	0	0	543	
5	0	0	0	0	542	
6	0	0	0	0	546	
7	0	0	0	0	548	
8	0	0	0	0	551	
9	0	0	0	0	548	
10	0	0	0	0	544	
11	0	0	0	0	540	
12	0	0	0	0	543	
13	0	0	0	0	551	
14	0	0	0	0	553	
15	0	0	0	0	559	
0	0	0	0	0	564	
1	0	0	0	0	564	
2	0	0	0	0	560	
3	0	0	0	0	550	
4	0	0	0	0	545	
5	0	0	0	0	548	
6	0	0	0	0	555	
7	0	0	0	0	562	
8	0	0	0	0	561	
9	0	0	0	0	561	
10	0	0	0	0	563	
11	0	0	0	0	561	
12	0	0	0	0	559	
13	0	0	0	0	553	
14	0	0	0	0	550	
15	0	0	0	0	555	
0	0	0	0	0	555	
1	0	0	0	0	555	
2	0	0	0	0	564	
3	0	0	0	0	575	
4	0	0	0	0	578	
5	0	0	0	0	572	
6	0	0	0	0	566	
7	0	0	0	0	568	
8	0	0	0	0	571	
9	0	0	0	0	570	
10	0	0	0	0	570	
11	0	0	0	0	569	
12	0	0	0	0	567	
13	0	0	0	0	566	
14	0	0	0	0	567	
15	0	0	0	0	566	
0	0	0	0	0	562	
1	0	0	0	0	561	
2	0	0	0	0	561	
3	0	0	0	0	562	
4	0	0	0	0	561	
5	0	0	0	0	560	
6	0	0	0	0	556	
7	0	0	0	0	554	
8	0	0	0	0	556	
9	0	0	0	0	558	
10	0	0	0	0	557	
11	0	0	0	0	555	
12	0	0	0	0	555	
13	0	0	0	0	562	
14	0	0	0	0	563	
15	0	0	0	0	564	
0	0	0	0	0	560	
1	0	0	0	0	553	
2	0	0	0	0	554	
3	0	0	0	0	554	
4	0	0	0	0	553	
5	0	0	0	0	547	
6	0	0	0	0	543	
7	0	0	0	0	546	
8	0	0	0	0	545	
9	0	0	0	0	544	
10	0	0	0	0	542	
11	0	0	0	0	535	
12	0	0	0	0	525	
13	0	0	0	0	522	
14	0	0	0	0	511	
15	0	0	0	0	503	
0	0	0	0	0	499	
1	0	0	0	0	502	
2	0	0	0	0	504	
3	0	0	0	0	504	
4	0	0	0	0	505	
5	0	0	0	0	508	
6	0	0	0	0	508	
7	0	0	0	0	510	
8	0	0	0	0	506	
9	0	0	0	0	496	
10	0	0	0	0	493	
11	0	0	0	0	487	
12	0	0	0	0	479	
13	0	0	0	0	476	
14	0	0	0	0	485	
15	0	0	0	0	493	
0	0	0	0	0	487	
1	0	0	0	0	484	
2	0	0	0	0	481	
3	0	0	0	0	479	
4	0	0	0	0	473	
5	0	0	0	0	470	
6	0	0	0	0	468	
7	0	0	0	0	456	
8	0	0	0	0	448	
9	0	0	0	0	455	
10	0	0	0	0	469	
11	0	0	0	0	476	
12	0	0	0	0	472	
13	0	0	0	0	462	
14	0	0	0	0	457	
15	0	0	0	0	453	
0	0	0	0	0	447	
1	0	0	0	0	453	
2	0	0	0	0	452	
3	0	0	0	0	447	
4	0	0	0	0	447	
5	0	0	0	0	451	
6	0	0	0	0	452	
7	0	0	0	0	448	
8	0	0	0	0	444	
9	0	0	0	0	444	
10	0	0	0	0	448	
11	0	0	0	0	450	
12	0	0	0	0	448	
13	0	0	0	0	451	
14	0	0	0	0	454	
15	0	0	0	0	451	
0	0	0	0	0	451	
1	0	0	0	0	452	
2	0	0	0	0	449	
3	0	0	0	0	458	
4	0	0	0	0	467	
5	0	0	0	0	469	
6	0	0	0	0	465	
7	0	0	0	0	455	
8	0	0	0	0	452	
9	0	0	0	0	454	
10	0	0	0	0	451	
11	0	0	0	0	454	
12	0	0	0	0	455	
13	0	0	0	0	456	
14	0	0	0	0	454	
15	0	0	0	0	458	
0	0	0	0	0	458	
1	0	0	0	0	452	
2	0	0	0	0	450	
3	0	0	0	0	453	
4	0	0	0	0	458	
5	0	0	0	0	460	
6	0	0	0	0	460	
7	0	0	0	0	459	
8	0	0	0	0	458	
9	0	0	0	0	461	
10	0	0	0	0	464	
11	0	0	0	0	466	
12	0	0	0	0	471	
13	0	0	0	0	472	
14	0	0	0	0	467	
15	0	0	0	0	460	
0	0	0	0	0	454	
1	0	0	0	0	452	
2	0	0	0	0	454	
3	0	0	0	0	463	
4	0	0	0	0	467	
5	0	0	0	0	469	
6	0	0	0	0	469	
7	0	0	0	0	470	
8	0	0	0	0	469	
9	0	0	0	0	470	
10	0	0	0	0	468	
11	0	0	0	0	464	
12	0	0	0	0	462	
13	0	0	0	0	463	
14	0	0	0	0	467	
15	0	0	0	0	470	
0	0	0	0	0	473	
1	0	0	0	0	470	
2	0	0	0	0	464	
3	0	0	0	0	473	
4	0	0	0	0	486	
5	0	0	0	0	495	
6	0	0	0	0	500	
7	0	0	0	0	501	
8	0	0	0	0	504	
9	0	0	0	0	502	
10	0	0	0	0	500	
11	0	0	0	0	495	
12	0	0	0	0	501	
13	0	0	0	0	502	
14	0	0	0	0	494	
15	0	0	0	0	489	
0	0	0	0	0	485	
1	0	0	0	0	486	
2	0	0	0	0	482	
3	0	0	0	0	475	
4	0	0	0	0	466	
5	0	0	0	0	465	
6	0	0	0	0	469	
7	0	0	0	0	475	
8	0	0	0	0	474	
9	0	0	0	0	474	
10	0	0	0	0	480	
11	0	0	0	0	490	
12	0	0	0	0	495	
13	0	0	0	0	491	
14	0	0	0	0	486	
15	0	0	0	0	484	
0	0	0	0	0	489	
1	0	0	0	0	489	
2	0	0	0	0	491	
3	0	0	0	0	496	
4	0	0	0	0	494	
5	0	0	0	0	489	
6	0	0	0	0	488	
7	0	0	0	0	487	
8	0	0	0	0	487	
9	0	0	0	0	492	
10	0	0	0	0	494	
11	0	0	0	0	499	
12	0	0	0	0	503	
13	0	0	0	0	500	
14	0	0	0	0	500	
15	0	0	0	0	502	
0	0	0	0	0	499	
1	0	0	0	0	497	
2	0	0	0	0	502	
3	0	0	0	0	499	
4	0	0	0	0	492	
5	0	0	0	0	490	
6	0	0	0	0	488	
7	0	0	0	0	491	
8	0	0	0	0	490	
9	0	0	0	0	488	
10	0	0	0	0	494	
11	0	0	0	0	501	
12	0	0	0	0	510	
13	0	0	0	0	513	
14	0	0	0	0	515	
15	0	0	0	0	512	
0	0	0	0	0	508	
1	0	0	0	0	508	
2	0	0	0	0	509	
3	0	0	0	0	505	
4	0	0	0	0	508	
5	0	0	0	0	512	
6	0	0	0	0	509	
7	0	0	0	0	502	
8	0	0	0	0	500	
9	0	0	0	0	499	
10	0	0	0	0	495	
11	0	0	0	0	499	
12	0	0	0	0	500	
13	0	0	0	0	505	
14	0	0	0	0	512	
15	0	0	0	0	513	
0	0	0	0	0	512	
1	0	0	0	0	504	
2	0	0	0	0	499	
3	0	0	0	0	499	
4	0	0	0	0	499	
5	0	0	0	0	505	
6	0	0	0	0	507	
7	0	0	0	0	503	
8	0	0	0	0	497	
9	0	0	0	0	496	
10	0	0	0	0	497	
11	0	0	0	0	500	
12	0	0	0	0	505	
13	0	0	0	0	504	
14	0	0	0	0	501	
15	0	0	0	0	504	
0	0	0	0	0	507	
1	0	0	0	0	512	
2	0	0	0	0	517	
3	0	0	0	0	517	
4	0	0	0	0	521	
5	0	0	0	0	522	
6	0	0	0	0	513	
7	0	0	0	0	501	
8	0	0	0	0	500	
9	0	0	0	0	502	
10	0	0	0	0	504	
11	0	0	0	0	507	
12	0	0	0	0	508	
13	0	0	0	0	505	
14	0	0	0	0	501	
15	0	0	0	0	504	
0	0	0	0	0	505	
1	0	0	0	0	513	
2	0	0	0	0	527	
3	0	0	0	0	535	
4	0	0	0	0	532	
5	0	0	0	0	526	
6	0	0	0	0	521	
7	0	0	0	0	516	
8	0	0	0	0	512	
9	0	0	0	0	508	
10	0	0	0	0	502	
11	0	0	0	0	499	
12	0	0	0	0	502	
13	0	0	0	0	508	
14	0	0	0	0	510	
15	0	0	0	0	511	
0	0	0	0	0	505	
1	0	0	0	0	508	
2	0	0	0	0	512	
3	0	0	0	0	510	
4	0	0	0	0	504	
5	0	0	0	0	495	
6	0	0	0	0	490	
7	0	0	0	0	496	
8	0	0	0	0	503	
9	0	0	0	0	511	
10	0	0	0	0	514	
11	0	0	0	0	515	
12	0	0	0	0	521	
13	0	0	0	0	531	
14	0	0	0	0	533	
15	0	0	0	0	531	
0	0	0	0	0	529	
1	0	0	0	0	527	
2	0	0	0	0	527	
3	0	0	0	0	527	
4	0	0	0	0	529	
5	0	0	0	0	537	
6	0	0	0	0	545	
7	0	0	0	0	543	
8	0	0	0	0	538	
9	0	0	0	0	535	
10	0	0	0	0	529	
11	0	0	0	0	524	
12	0	0	0	0	517	
13	0	0	0	0	513	
14	0	0	0	0	512	
15	0	0	0	0	517	
0	0	0	0	0	515	
1	0	0	0	0	513	
2	0	0	0	0	513	
3	0	0	0	0	510	
4	0	0	0	0	505	
5	0	0	0	0	510	
6	0	0	0	0	513	
7	0	0	0	0	513	
8	0	0	0	0	519	
9	0	0	0	0	521	
10	0	0	0	0	519	
11	0	0	0	0	513	
12	0	0	0	0	509	
13	0	0	0	0	507	
14	0	0	0	0	504	
15	0	0	0	0	507	
0	0	0	0	0	507	
1	0	0	0	0	508	
2	0	0	0	0	508	
3	0	0	0	0	504	
4	0	0	0	0	501	
5	0	0	0	0	498	
6	0	0	0	0	494	
7	0	0	0	0	491	
8	0	0	0	0	487	
9	0	0	0	0	484	
10	0	0	0	0	490	
11	0	0	0	0	492	
12	0	0	0	0	488	
13	0	0	0	0	480	
14	0	0	0	0	479	
15	0	0	0	0	482	
0	0	0	0	0	480	
1	0	0	0	0	480	
2	0	0	0	0	481	
3	0	0	0	0	487	
4	0	0	0	0	480	
5	0	0	0	0	482	
6	0	0	0	0	488	
7	0	0	0	0	498	
8	0	0	0	0	499	
9	0	0	0	0	497	
10	0	0	0	0	502	
11	0	0	0	0	508	
12	0	0	0	0	504	
13	0	0	0	0	496	
14	0	0	0	0	495	
15	0	0	0	0	497	
0	0	0	0	0	495	
1	0	0	0	0	492	
2	0	0	0	0	496	
3	0	0	0	0	498	
4	0	0	0	0	499	
5	0	0	0	0	507	
6	0	0	0	0	511	
7	0	0	0	0	517	
8	0	0	0	0	515	
9	0	0	0	0	508	
10	0	0	0	0	501	
11	0	0	0	0	491	
12	0	0	0	0	486	
13	0	0	0	0	489	
14	0	0	0	0	496	
15	0	0	0	0	496	
0	0	0	0	0	492	
1	0	0	0	0	489	
2	0	0	0	0	487	
3	0	0	0	0	486	
4	0	0	0	0	495	
5	0	0	0	0	502	
6	0	0	0	0	502	
7	0	0	0	0	508	
8	0	0	0	0	515	
9	0	0	0	0	506	
10	0	0	0	0	498	
11	0	0	0	0	493	
12	0	0	0	0	492	
13	0	0	0	0	491	
14	0	0	0	0	492	
15	0	0	0	0	496	
0	0	0	0	0	496	
1	0	0	0	0	491	
2	0	0	0	0	490	
3	0	0	0	0	492	
4	0	0	0	0	492	
5	0	0	0	0	487	
6	0	0	0	0	497	
7	0	0	0	0	503	
8	0	0	0	0	504	
9	0	0	0	0	505	
10	0	0	0	0	502	
11	0	0	0	0	502	
12	0	0	0	0	511	
13	0	0	0	0	512	
14	0	0	0	0	513	
15	0	0	0	0	510	
0	0	0	0	0	511	
1	0	0	0	0	514	
2	0	0	0	0	513	
3	0	0	0	0	511	
4	0	0	0	0	505	
5	0	0	0	0	507	
6	0	0	0	0	507	
7	0	0	0	0	508	
8	0	0	0	0	517	
9	0	0	0	0	527	
10	0	0	0	0	539	
11	0	0	0	0	553	
12	0	0	0	0	568	
13	0	0	0	0	585	
14	0	0	0	0	600	
15	0	0	0	0	615	
0	0	0	0	0	633	
1	0	0	0	0	649	
2	0	0	0	0	664	
3	0	0	0	0	677	
4	0	0	0	0	692	
5	0	0	0	0	708	
6	0	0	0	0	722	
7	0	0	0	0	734	
8	0	0	0	0	744	
9	0	0	0	0	755	
10	0	0	0	0	769	
11	0	0	0	0	782	
12	0	0	0	0	793	
13	0	0	0	0	804	
14	0	0	0	0	812	
15	0	0	0	0	808	
0	0	0	0	0	793	
1	0	0	0	0	775	
2	0	0	0	0	760	
3	0	0	0	0	736	
4	0	0	0	0	707	
5	0	0	0	0	671	
6	0	0	0	0	628	
7	0	0	0	0	584	
8	0	0	0	0	544	
9	0	0	0	0	505	
10	0	0	0	0	462	
11	0	0	0	0	417	
12	0	0	0	0	370	
13	0	0	0	0	323	
14	0	0	0	0	287	
15	0	0	0	0	263	
0	0	0	0	0	249	
1	0	0	0	0	239	
2	0	0	0	0	233	
3	0	0	0	0	231	
4	0	0	0	0	235	
5	0	0	0	0	242	
6	0	0	0	0	248	
7	0	0	0	0	248	
8	0	0	0	0	255	
9	0	0	0	0	265	
10	0	0	0	0	278	
11	0	0	0	0	281	
12	0	0	0	0	289	
13	0	0	0	0	302	
14	0	0	0	0	314	
15	0	0	0	0	328	
0	0	0	0	0	338	
1	0	0	0	0	351	
2	0	0	0	0	362	
3	0	0	0	0	376	
4	0	0	0	0	395	
5	0	0	0	0	407	
6	0	0	0	0	417	
7	0	0	0	0	426	
8	0	0	0	0	440	
9	0	0	0	0	449	
10	0	0	0	0	460	
11	0	0	0	0	472	
12	0	0	0	0	487	
13	0	0	0	0	498	
14	0	0	0	0	505	
15	0	0	0	0	505	
0	0	0	0	0	504	
1	0	0	0	0	508	
2	0	0	0	0	512	
3	0	0	0	0	515	
4	0	0	0	0	523	
5	0	0	0	0	523	
6	0	0	0	0	517	
7	0	0	0	0	521	
8	0	0	0	0	521	
9	0	0	0	0	522	
10	0	0	0	0	528	
11	0	0	0	0	527	
12	0	0	0	0	519	
13	0	0	0	0	510	
14	0	0	0	0	510	
15	0	0	0	0	512	
0	0	0	0	0	508	
1	0	0	0	0	510	
2	0	0	0	0	512	
3	0	0	0	0	513	
4	0	0	0	0	513	
5	0	0	0	0	514	
6	0	0	0	0	517	
7	0	0	0	0	519	
8	0	0	0	0	517	
9	0	0	0	0	517	
10	0	0	0	0	519	
11	0	0	0	0	523	
12	0	0	0	0	527	
13	0	0	0	0	530	
14	0	0	0	0	533	
15	0	0	0	0	533	
0	0	0	0	0	530	
1	0	0	0	0	526	
2	0	0	0	0	520	
3	0	0	0	0	518	
4	0	0	0	0	514	
5	0	0	0	0	513	
6	0	0	0	0	515	
7	0	0	0	0	517	
8	0	0	0	0	515	
9	0	0	0	0	513	
10	0	0	0	0	508	
11	0	0	0	0	502	
12	0	0	0	0	500	
13	0	0	0	0	505	
14	0	0	0	0	514	
15	0	0	0	0	520	
0	0	0	0	0	529	
1	0	0	0	0	536	
2	0	0	0	0	536	
3	0	0	0	0	530	
4	0	0	0	0	523	
5	0	0	0	0	519	
6	0	0	0	0	521	
7	0	0	0	0	519	
8	0	0	0	0	518	
9	0	0	0	0	521	
10	0	0	0	0	526	
11	0	0	0	0	531	
12	0	0	0	0	532	
13	0	0	0	0	530	
14	0	0	0	0	528	
15	0	0	0	0	531	
0	0	0	0	0	527	
1	0	0	0	0	522	
2	0	0	0	0	514	
3	0	0	0	0	513	
4	0	0	0	0	519	
5	0	0	0	0	520	
6	0	0	0	0	513	
7	0	0	0	0	512	
8	0	0	0	0	516	
9	0	0	0	0	527	
10	0	0	0	0	532	
11	0	0	0	0	529	
12	0	0	0	0	528	
13	0	0	0	0	530	
14	0	0	0	0	537	
15	0	0	0	0	544	
0	0	0	0	0	546	
1	0	0	0	0	538	
2	0	0	0	0	530	
3	0	0	0	0	532	
4	0	0	0	0	531	
5	0	0	0	0	526	
6	0	0	0	0	519	
7	0	0	0	0	524	
8	0	0	0	0	536	
9	0	0	0	0	538	
10	0	0	0	0	539	
11	0	0	0	0	541	
12	0	0	0	0	536	
13	0	0	0	0	532	
14	0	0	0	0	524	
15	0	0	0	0	523	
0	0	0	0	0	529	
1	0	0	0	0	530	
2	0	0	0	0	528	
3	0	0	0	0	527	
4	0	0	0	0	528	
5	0	0	0	0	534	
6	0	0	0	0	538	
7	0	0	0	0	535	
8	0	0	0	0	526	
9	0	0	0	0	518	
10	0	0	0	0	513	
11	0	0	0	0	516	
12	0	0	0	0	524	
13	0	0	0	0	531	
14	0	0	0	0	531	
15	0	0	0	0	529	
0	0	0	0	0	526	
1	0	0	0	0	527	
2	0	0	0	0	527	
3	0	0	0	0	527	
4	0	0	0	0	529	
5	0	0	0	0	535	
6	0	0	0	0	541	
7	0	0	0	0	540	
8	0	0	0	0	538	
9	0	0	0	0	536	
10	0	0	0	0	533	
11	0	0	0	0	536	
12	0	0	0	0	537	
13	0	0	0	0	538	
14	0	0	0	0	543	
15	0	0	0	0	544	
0	0	0	0	0	541	
1	0	0	0	0	543	
2	0	0	0	0	541	
3	0	0	0	0	538	
4	0	0	0	0	536	
5	0	0	0	0	536	
6	0	0	0	0	536	
7	0	0	0	0	536	
8	0	0	0	0	535	
9	0	0	0	0	539	
10	0	0	0	0	545	
11	0	0	0	0	551	
12	0	0	0	0	556	
13	0	0	0	0	555	
14	0	0	0	0	557	
15	0	0	0	0	564	
0	0	0	0	0	571	
1	0	0	0	0	571	
2	0	0	0	0	559	
3	0	0	0	0	555	
4	0	0	0	0	562	
5	0	0	0	0	560	
6	0	0	0	0	554	
7	0	0	0	0	549	
8	0	0	0	0	551	
9	0	0	0	0	555	
10	0	0	0	0	559	
11	0	0	0	0	559	
12	0	0	0	0	563	
13	0	0	0	0	566	
14	0	0	0	0	568	
15	0	0	0	0	567	
0	0	0	0	0	565	
1	0	0	0	0	570	
2	0	0	0	0	572	
3	0	0	0	0	572	
4	0	0	0	0	574	
5	0	0	0	0	573	
6	0	0	0	0	571	
7	0	0	0	0	572	
8	0	0	0	0	568	
9	0	0	0	0	565	
10	0	0	0	0	565	
11	0	0	0	0	569	
12	0	0	0	0	569	
13	0	0	0	0	572	
14	0	0	0	0	572	
15	0	0	0	0	564	
0	0	0	0	0	558	
1	0	0	0	0	562	
2	0	0	0	0	567	
3	0	0	0	0	563	
4	0	0	0	0	545	
5	0	0	0	0	533	
6	0	0	0	0	533	
7	0	0	0	0	547	
8	0	0	0	0	555	
9	0	0	0	0	555	
10	0	0	0	0	547	
11	0	0	0	0	542	
12	0	0	0	0	538	
13	0	0	0	0	535	
14	0	0	0	0	536	
15	0	0	0	0	537	
0	0	0	0	0	543	
1	0	0	0	0	541	
2	0	0	0	0	536	
3	0	0	0	0	534	
4	0	0	0	0	536	
5	0	0	0	0	534	
6	0	0	0	0	523	
7	0	0	0	0	517	
8	0	0	0	0	515	
9	0	0	0	0	516	
10	0	0	0	0	528	
11	0	0	0	0	538	
12	0	0	0	0	531	
13	0	0	0	0	521	
14	0	0	0	0	509	
15	0	0	0	0	504	
0	0	0	0	0	500	
1	0	0	0	0	495	
2	0	0	0	0	494	
3	0	0	0	0	496	
4	0	0	0	0	496	
5	0	0	0	0	497	
6	0	0	0	0	494	
7	0	0	0	0	487	
8	0	0	0	0	483	
9	0	0	0	0	479	
10	0	0	0	0	478	
11	0	0	0	0	481	
12	0	0	0	0	480	
13	0	0	0	0	478	
14	0	0	0	0	476	
15	0	0	0	0	472	
0	0	0	0	0	470	
1	0	0	0	0	473	
2	0	0	0	0	472	
3	0	0	0	0	469	
4	0	0	0	0	468	
5	0	0	0	0	471	
6	0	0	0	0	467	
7	0	0	0	0	467	
8	0	0	0	0	464	
9	0	0	0	0	471	
10	0	0	0	0	473	
11	0	0	0	0	465	
12	0	0	0	0	454	
13	0	0	0	0	446	
14	0	0	0	0	444	
15	0	0	0	0	445	
0	0	0	0	0	448	
1	0	0	0	0	448	
2	0	0	0	0	449	
3	0	0	0	0	455	
4	0	0	0	0	457	
5	0	0	0	0	460	
6	0	0	0	0	465	
7	0	0	0	0	466	
8	0	0	0	0	464	
9	0	0	0	0	459	
10	0	0	0	0	462	
11	0	0	0	0	464	
12	0	0	0	0	466	
13	0	0	0	0	461	
14	0	0	0	0	463	
15	0	0	0	0	466	
0	0	0	0	0	469	
1	0	0	0	0	470	
2	0	0	0	0	472	
3	0	0	0	0	473	
4	0	0	0	0	470	
5	0	0	0	0	463	
6	0	0	0	0	462	
7	0	0	0	0	459	
8	0	0	0	0	459	
9	0	0	0	0	469	
10	0	0	0	0	474	
11	0	0	0	0	473	
12	0	0	0	0	467	
13	0	0	0	0	463	
14	0	0	0	0	458	
15	0	0	0	0	456	
0	0	0	0	0	459	
1	0	0	0	0	463	
2	0	0	0	0	470	
3	0	0	0	0	469	
4	0	0	0	0	468	
5	0	0	0	0	470	
6	0	0	0	0	473	
7	0	0	0	0	480	
8	0	0	0	0	484	
9	0	0	0	0	481	
10	0	0	0	0	470	
11	0	0	0	0	463	
12	0	0	0	0	466	
13	0	0	0	0	469	
14	0	0	0	0	469	
15	0	0	0	0	464	
0	0	0	0	0	456	
1	0	0	0	0	450	
2	0	0	0	0	448	
3	0	0	0	0	450	
4	0	0	0	0	454	
5	0	0	0	0	459	
6	0	0	0	0	463	
7	0	0	0	0	463	
8	0	0	0	0	466	
9	0	0	0	0	472	
10	0	0	0	0	473	
11	0	0	0	0	471	
12	0	0	0	0	477	
13	0	0	0	0	475	
14	0	0	0	0	471	
15	0	0	0	0	470	
0	0	0	0	0	468	
1	0	0	0	0	475	
2	0	0	0	0	473	
3	0	0	0	0	468	
4	0	0	0	0	460	
5	0	0	0	0	460	
6	0	0	0	0	458	
7	0	0	0	0	462	
8	0	0	0	0	471	
9	0	0	0	0	481	
10	0	0	0	0	485	
11	0	0	0	0	485	
12	0	0	0	0	481	
13	0	0	0	0	478	
14	0	0	0	0	472	
15	0	0	0	0	467	
0	0	0	0	0	468	
1	0	0	0	0	474	
2	0	0	0	0	478	
3	0	0	0	0	484	
4	0	0	0	0	487	
5	0	0	0	0	492	
6	0	0	0	0	497	
7	0	0	0	0	501	
8	0	0	0	0	501	
9	0	0	0	0	502	
10	0	0	0	0	502	
11	0	0	0	0	497	
12	0	0	0	0	496	
13	0	0	0	0	493	
14	0	0	0	0	487	
15	0	0	0	0	488	
0	0	0	0	0	490	
1	0	0	0	0	489	
2	0	0	0	0	492	
3	0	0	0	0	498	
4	0	0	0	0	503	
5	0	0	0	0	500	
6	0	0	0	0	505	
7	0	0	0	0	515	
8	0	0	0	0	524	
9	0	0	0	0	528	
10	0	0	0	0	523	
11	0	0	0	0	504	
12	0	0	0	0	495	
13	0	0	0	0	495	
14	0	0	0	0	494	
15	0	0	0	0	493	
0	0	0	0	0	487	
1	0	0	0	0	487	
2	0	0	0	0	492	
3	0	0	0	0	494	
4	0	0	0	0	499	
5	0	0	0	0	500	
6	0	0	0	0	500	
7	0	0	0	0	503	
8	0	0	0	0	505	
9	0	0	0	0	507	
10	0	0	0	0	504	
11	0	0	0	0	507	
12	0	0	0	0	505	
13	0	0	0	0	499	
14	0	0	0	0	493	
15	0	0	0	0	496	
0	0	0	0	0	495	
1	0	0	0	0	487	
2	0	0	0	0	488	
3	0	0	0	0	494	
4	0	0	0	0	500	
5	0	0	0	0	504	
6	0	0	0	0	504	
7	0	0	0	0	497	
8	0	0	0	0	495	
9	0	0	0	0	493	
10	0	0	0	0	497	
11	0	0	0	0	502	
12	0	0	0	0	504	
13	0	0	0	0	497	
14	0	0	0	0	496	
15	0	0	0	0	499	
0	0	0	0	0	506	
1	0	0	0	0	509	
2	0	0	0	0	508	
3	0	0	0	0	506	
4	0	0	0	0	505	
5	0	0	0	0	505	
6	0	0	0	0	508	
7	0	0	0	0	512	
8	0	0	0	0	509	
9	0	0	0	0	502	
10	0	0	0	0	499	
11	0	0	0	0	498	
12	0	0	0	0	500	
13	0	0	0	0	501	
14	0	0	0	0	498	
15	0	0	0	0	496	
0	0	0	0	0	500	
1	0	0	0	0	503	
2	0	0	0	0	504	
3	0	0	0	0	506	
4	0	0	0	0	512	
5	0	0	0	0	512	
6	0	0	0	0	514	
7	0	0	0	0	517	
8	0	0	0	0	521	
9	0	0	0	0	518	
10	0	0	0	0	508	
11	0	0	0	0	507	
12	0	0	0	0	512	
13	0	0	0	0	517	
14	0	0	0	0	519	
15	0	0	0	0	517	
0	0	0	0	0	512	
1	0	0	0	0	508	
2	0	0	0	0	506	
3	0	0	0	0	509	
4	0	0	0	0	514	
5	0	0	0	0	514	
6	0	0	0	0	513	
7	0	0	0	0	513	
8	0	0	0	0	514	
9	0	0	0	0	512	
10	0	0	0	0	516	
11	0	0	0	0	527	
12	0	0	0	0	531	
13	0	0	0	0	524	
14	0	0	0	0	515	
15	0	0	0	0	515	
0	0	0	0	0	515	
1	0	0	0	0	511	
2	0	0	0	0	513	
3	0	0	0	0	513	
4	0	0	0	0	513	
5	0	0	0	0	519	
6	0	0	0	0	519	
7	0	0	0	0	517	
8	0	0	0	0	518	
9	0	0	0	0	523	
10	0	0	0	0	520	
11	0	0	0	0	515	
12	0	0	0	0	516	
13	0	0	0	0	518	
14	0	0	0	0	519	
15	0	0	0	0	518	
0	0	0	0	0	511	
1	0	0	0	0	507	
2	0	0	0	0	512	
3	0	0	0	0	523	
4	0	0	0	0	527	
5	0	0	0	0	530	
6	0	0	0	0	529	
7	0	0	0	0	524	
8	0	0	0	0	516	
9	0	0	0	0	515	
10	0	0	0	0	512	
11	0	0	0	0	508	
12	0	0	0	0	505	
13	0	0	0	0	504	
14	0	0	0	0	506	
15	0	0	0	0	507	
0	0	0	0	0	505	
1	0	0	0	0	510	
2	0	0	0	0	514	
3	0	0	0	0	510	
4	0	0	0	0	504	
5	0	0	0	0	499	
6	0	0	0	0	495	
7	0	0	0	0	488	
8	0	0	0	0	485	
9	0	0	0	0	493	
10	0	0	0	0	498	
11	0	0	0	0	500	
12	0	0	0	0	497	
13	0	0	0	0	496	
14	0	0	0	0	503	
15	0	0	0	0	499	
0	0	0	0	0	495	
1	0	0	0	0	487	
2	0	0	0	0	483	
3	0	0	0	0	483	
4	0	0	0	0	486	
5	0	0	0	0	491	
6	0	0	0	0	486	
7	0	0	0	0	484	
8	0	0	0	0	487	
9	0	0	0	0	488	
10	0	0	0	0	485	
11	0	0	0	0	485	
12	0	0	0	0	486	
13	0	0	0	0	488	
14	0	0	0	0	489	
15	0	0	0	0	488	
0	0	0	0	0	488	
1	0	0	0	0	493	
2	0	0	0	0	494	
3	0	0	0	0	491	
4	0	0	0	0	489	
5	0	0	0	0	486	
6	0	0	0	0	482	
7	0	0	0	0	479	
8	0	0	0	0	482	
9	0	0	0	0	483	
10	0	0	0	0	487	
11	0	0	0	0	494	
12	0	0	0	0	496	
13	0	0	0	0	497	
14	0	0	0	0	494	
15	0	0	0	0	496	
0	0	0	0	0	499	
1	0	0	0	0	505	
2	0	0	0	0	510	
3	0	0	0	0	502	
4	0	0	0	0	501	
5	0	0	0	0	502	
6	0	0	0	0	500	
7	0	0	0	0	501	
8	0	0	0	0	508	
9	0	0	0	0	511	
10	0	0	0	0	516	
11	0	0	0	0	526	
12	0	0	0	0	523	
13	0	0	0	0	513	
14	0	0	0	0	511	
15	0	0	0	0	511	
0	0	0	0	0	506	
1	0	0	0	0	505	
2	0	0	0	0	505	
3	0	0	0	0	507	
4	0	0	0	0	504	
5	0	0	0	0	505	
6	0	0	0	0	510	
7	0	0	0	0	507	
8	0	0	0	0	504	
9	0	0	0	0	512	
10	0	0	0	0	521	
11	0	0	0	0	524	
12	0	0	0	0	519	
13	0	0	0	0	516	
14	0	0	0	0	518	
15	0	0	0	0	519	
0	0	0	0	0	510	
1	0	0	0	0	502	
2	0	0	0	0	502	
3	0	0	0	0	506	
4	0	0	0	0	508	
5	0	0	0	0	505	
6	0	0	0	0	500	
7	0	0	0	0	498	
8	0	0	0	0	507	
9	0	0	0	0	518	
10	0	0	0	0	525	
11	0	0	0	0	527	
12	0	0	0	0	526	
13	0	0	0	0	532	
14	0	0	0	0	543	
15	0	0	0	0	554	
0	0	0	0	0	575	
1	0	0	0	0	597	
2	0	0	0	0	619	
3	0	0	0	0	633	
4	0	0	0	0	651	
5	0	0	0	0	668	
6	0	0	0	0	684	
7	0	0	0	0	699	
8	0	0	0	0	714	
9	0	0	0	0	733	
10	0	0	0	0	744	
11	0	0	0	0	750	
12	0	0	0	0	759	
13	0	0	0	0	766	
14	0	0	0	0	768	
15	0	0	0	0	770	
0	0	0	0	0	777	
1	0	0	0	0	784	
2	0	0	0	0	775	
3	0	0	0	0	759	
4	0	0	0	0	747	
5	0	0	0	0	732	
6	0	0	0	0	708	
7	0	0	0	0	683	
8	0	0	0	0	655	
9	0	0	0	0	620	
10	0	0	0	0	583	
11	0	0	0	0	541	
12	0	0	0	0	492	
13	0	0	0	0	443	
14	0	0	0	0	397	
15	0	0	0	0	354	
0	0	0	0	0	322	
1	0	0	0	0	297	
2	0	0	0	0	280	
3	0	0	0	0	265	
4	0	0	0	0	258	
5	0	0	0	0	256	
6	0	0	0	0	260	
7	0	0	0	0	260	
8	0	0	0	0	257	
9	0	0	0	0	259	
10	0	0	0	0	263	
11	0	0	0	0	277	
12	0	0	0	0	292	
13	0	0	0	0	297	
14	0	0	0	0	303	
15	0	0	0	0	311	
0	0	0	0	0	323	
1	0	0	0	0	341	
2	0	0	0	0	357	
3	0	0	0	0	371	
4	0	0	0	0	386	
5	0	0	0	0	395	
6	0	0	0	0	404	
7	0	0	0	0	413	
8	0	0	0	0	424	
9	0	0	0	0	433	
10	0	0	0	0	447	
11	0	0	0	0	455	
12	0	0	0	0	465	
13	0	0	0	0	474	
14	0	0	0	0	480	
15	0	0	0	0	487	
0	0	0	0	0	489	
1	0	0	0	0	497	
2	0	0	0	0	509	
3	0	0	0	0	521	
4	0	0	0	0	525	
5	0	0	0	0	520	
6	0	0	0	0	515	
7	0	0	0	0	512	
8	0	0	0	0	512	
9	0	0	0	0	517	
10	0	0	0	0	516	
11	0	0	0	0	513	
12	0	0	0	0	515	
13	0	0	0	0	520	
14	0	0	0	0	520	
15	0	0	0	0	518	
0	0	0	0	0	524	
1	0	0	0	0	531	
2	0	0	0	0	526	
3	0	0	0	0	524	
4	0	0	0	0	523	
5	0	0	0	0	517	
6	0	0	0	0	512	
7	0	0	0	0	513	
8	0	0	0	0	517	
9	0	0	0	0	514	
10	0	0	0	0	511	
11	0	0	0	0	513	
12	0	0	0	0	513	
13	0	0	0	0	517	
14	0	0	0	0	515	
15	0	0	0	0	513	
0	0	0	0	0	515	
1	0	0	0	0	515	
2	0	0	0	0	512	
3	0	0	0	0	515	
4	0	0	0	0	520	
5	0	0	0	0	524	
6	0	0	0	0	527	
7	0	0	0	0	527	
8	0	0	0	0	524	
9	0	0	0	0	521	
10	0	0	0	0	518	
11	0	0	0	0	521	
12	0	0	0	0	524	
13	0	0	0	0	520	
14	0	0	0	0	519	
15	0	0	0	0	525	
0	0	0	0	0	529	
1	0	0	0	0	534	
2	0	0	0	0	537	
3	0	0	0	0	538	
4	0	0	0	0	537	
5	0	0	0	0	529	
6	0	0	0	0	524	
7	0	0	0	0	527	
8	0	0	0	0	531	
9	0	0	0	0	538	
10	0	0	0	0	536	
11	0	0	0	0	532	
12	0	0	0	0	528	
13	0	0	0	0	523	
14	0	0	0	0	519	
15	0	0	0	0	519	
0	0	0	0	0	521	
1	0	0	0	0	521	
2	0	0	0	0	520	
3	0	0	0	0	519	
4	0	0	0	0	524	
5	0	0	0	0	530	
6	0	0	0	0	534	
7	0	0	0	0	538	
8	0	0	0	0	535	
9	0	0	0	0	534	
10	0	0	0	0	543	
11	0	0	0	0	557	
12	0	0	0	0	559	
13	0	0	0	0	547	
14	0	0	0	0	534	
15	0	0	0	0	519	
0	0	0	0	0	513	
1	0	0	0	0	517	
2	0	0	0	0	516	
3	0	0	0	0	515	
4	0	0	0	0	519	
5	0	0	0	0	525	
6	0	0	0	0	529	
7	0	0	0	0	532	
8	0	0	0	0	534	
9	0	0	0	0	533	
10	0	0	0	0	540	
11	0	0	0	0	547	
12	0	0	0	0	546	
13	0	0	0	0	547	
14	0	0	0	0	538	
15	0	0	0	0	529	
0	0	0	0	0	527	
1	0	0	0	0	531	
2	0	0	0	0	530	
3	0	0	0	0	527	
4	0	0	0	0	534	
5	0	0	0	0	546	
6	0	0	0	0	544	
7	0	0	0	0	535	
8	0	0	0	0	526	
9	0	0	0	0	524	
10	0	0	0	0	531	
11	0	0	0	0	535	
12	0	0	0	0	537	
13	0	0	0	0	536	
14	0	0	0	0	534	
15	0	0	0	0	533	
0	0	0	0	0	533	
1	0	0	0	0	533	
2	0	0	0	0	531	
3	0	0	0	0	537	
4	0	0	0	0	539	
5	0	0	0	0	538	
6	0	0	0	0	538	
7	0	0	0	0	537	
8	0	0	0	0	536	
9	0	0	0	0	536	
10	0	0	0	0	536	
11	0	0	0	0	534	
12	0	0	0	0	529	
13	0	0	0	0	532	
14	0	0	0	0	536	
15	0	0	0	0	537	
0	0	0	0	0	537	
1	0	0	0	0	541	
2	0	0	0	0	540	
3	0	0	0	0	537	
4	0	0	0	0	538	
5	0	0	0	0	539	
6	0	0	0	0	539	
7	0	0	0	0	539	
8	0	0	0	0	532	
9	0	0	0	0	528	
10	0	0	0	0	524	
11	0	0	0	0	521	
12	0	0	0	0	522	
13	0	0	0	0	532	
14	0	0	0	0	541	
15	0	0	0	0	545	
0	0	0	0	0	552	
1	0	0	0	0	558	
2	0	0	0	0	559	
3	0	0	0	0	558	
4	0	0	0	0	561	
5	0	0	0	0	567	
6	0	0	0	0	576	
7	0	0	0	0	575	
8	0	0	0	0	569	
9	0	0	0	0	557	
10	0	0	0	0	560	
11	0	0	0	0	566	
12	0	0	0	0	569	
13	0	0	0	0	569	
14	0	0	0	0	565	
15	0	0	0	0	558	
0	0	0	0	0	558	
1	0	0	0	0	558	
2	0	0	0	0	560	
3	0	0	0	0	568	
4	0	0	0	0	574	
5	0	0	0	0	574	
6	0	0	0	0	563	
7	0	0	0	0	558	
8	0	0	0	0	557	
9	0	0	0	0	559	
10	0	0	0	0	560	
11	0	0	0	0	560	
12	0	0	0	0	563	
13	0	0	0	0	568	
14	0	0	0	0	569	
15	0	0	0	0	566	
0	0	0	0	0	563	
1	0	0	0	0	561	
2	0	0	0	0	562	
3	0	0	0	0	553	
4	0	0	0	0	545	
5	0	0	0	0	549	
6	0	0	0	0	560	
7	0	0	0	0	568	
8	0	0	0	0	563	
9	0	0	0	0	562	
10	0	0	0	0	560	
11	0	0	0	0	555	
12	0	0	0	0	553	
13	0	0	0	0	551	
14	0	0	0	0	541	
15	0	0	0	0	539	
0	0	0	0	0	536	
1	0	0	0	0	534	
2	0	0	0	0	533	
3	0	0	0	0	532	
4	0	0	0	0	537	
5	0	0	0	0	542	
6	0	0	0	0	541	
7	0	0	0	0	539	
8	0	0	0	0	540	
9	0	0	0	0	542	
10	0	0	0	0	542	
11	0	0	0	0	533	
12	0	0	0	0	532	
13	0	0	0	0	532	
14	0	0	0	0	528	
15	0	0	0	0	518	
0	0	0	0	0	510	
1	0	0	0	0	507	
2	0	0	0	0	504	
3	0	0	0	0	499	
4	0	0	0	0	499	
5	0	0	0	0	500	
6	0	0	0	0	503	
7	0	0	0	0	501	
8	0	0	0	0	494	
9	0	0	0	0	494	
10	0	0	0	0	491	
11	0	0	0	0	491	
12	0	0	0	0	491	
13	0	0	0	0	490	
14	0	0	0	0	489	
15	0	0	0	0	486	
0	0	0	0	0	479	
1	0	0	0	0	476	
2	0	0	0	0	474	
3	0	0	0	0	472	
4	0	0	0	0	473	
5	0	0	0	0	474	
6	0	0	0	0	471	
7	0	0	0	0	469	
8	0	0	0	0	464	
9	0	0	0	0	463	
10	0	0	0	0	465	
11	0	0	0	0	463	
12	0	0	0	0	463	
13	0	0	0	0	459	
14	0	0	0	0	459	
15	0	0	0	0	459	
0	0	0	0	0	456	
1	0	0	0	0	449	
2	0	0	0	0	445	
3	0	0	0	0	451	
4	0	0	0	0	458	
5	0	0	0	0	461	
6	0	0	0	0	459	
7	0	0	0	0	459	
8	0	0	0	0	462	
9	0	0	0	0	462	
10	0	0	0	0	468	
11	0	0	0	0	472	
12	0	0	0	0	468	
13	0	0	0	0	465	
14	0	0	0	0	464	
15	0	0	0	0	462	
0	0	0	0	0	457	
1	0	0	0	0	462	
2	0	0	0	0	474	
3	0	0	0	0	482	
4	0	0	0	0	482	
5	0	0	0	0	479	
6	0	0	0	0	479	
7	0	0	0	0	481	
8	0	0	0	0	485	
9	0	0	0	0	483	
10	0	0	0	0	480	
11	0	0	0	0	476	
12	0	0	0	0	473	
13	0	0	0	0	469	
14	0	0	0	0	465	
15	0	0	0	0	464	
0	0	0	0	0	465	
1	0	0	0	0	476	
2	0	0	0	0	480	
3	0	0	0	0	472	
4	0	0	0	0	460	
5	0	0	0	0	449	
6	0	0	0	0	447	
7	0	0	0	0	455	
8	0	0	0	0	464	
9	0	0	0	0	467	
10	0	0	0	0	467	
11	0	0	0	0	470	
12	0	0	0	0	475	
13	0	0	0	0	472	
14	0	0	0	0	471	
15	0	0	0	0	467	
0	0	0	0	0	472	
1	0	0	0	0	478	
2	0	0	0	0	483	
3	0	0	0	0	483	
4	0	0	0	0	482	
5	0	0	0	0	483	
6	0	0	0	0	481	
7	0	0	0	0	478	
8	0	0	0	0	477	
9	0	0	0	0	474	
10	0	0	0	0	467	
11	0	0	0	0	465	
12	0	0	0	0	468	
13	0	0	0	0	465	
14	0	0	0	0	460	
15	0	0	0	0	464	
0	0	0	0	0	471	
1	0	0	0	0	470	
2	0	0	0	0	464	
3	0	0	0	0	460	
4	0	0	0	0	463	
5	0	0	0	0	475	
6	0	0	0	0	475	
7	0	0	0	0	469	
8	0	0	0	0	471	
9	0	0	0	0	476	
10	0	0	0	0	478	
11	0	0	0	0	479	
12	0	0	0	0	480	
13	0	0	0	0	474	
14	0	0	0	0	470	
15	0	0	0	0	472	
0	0	0	0	0	480	
1	0	0	0	0	483	
2	0	0	0	0	484	
3	0	0	0	0	486	
4	0	0	0	0	487	
5	0	0	0	0	488	
6	0	0	0	0	491	
7	0	0	0	0	496	
8	0	0	0	0	498	
9	0	0	0	0	500	
10	0	0	0	0	502	
11	0	0	0	0	501	
12	0	0	0	0	512	
13	0	0	0	0	512	
14	0	0	0	0	503	
15	0	0	0	0	496	
0	0	0	0	0	496	
1	0	0	0	0	495	
2	0	0	0	0	491	
3	0	0	0	0	486	
4	0	0	0	0	488	
5	0	0	0	0	503	
6	0	0	0	0	512	
7	0	0	0	0	513	
8	0	0	0	0	510	
9	0	0	0	0	512	
10	0	0	0	0	506	
11	0	0	0	0	497	
12	0	0	0	0	492	
13	0	0	0	0	494	
14	0	0	0	0	499	
15	0	0	0	0	500	
0	0	0	0	0	499	
1	0	0	0	0	498	
2	0	0	0	0	498	
3	0	0	0	0	495	
4	0	0	0	0	489	
5	0	0	0	0	491	
6	0	0	0	0	497	
7	0	0	0	0	505	
8	0	0	0	0	511	
9	0	0	0	0	509	
10	0	0	0	0	501	
11	0	0	0	0	496	
12	0	0	0	0	496	
13	0	0	0	0	502	
14	0	0	0	0	501	
15	0	0	0	0	498	
0	0	0	0	0	509	
1	0	0	0	0	515	
2	0	0	0	0	523	
3	0	0	0	0	516	
4	0	0	0	0	508	
5	0	0	0	0	506	
6	0	0	0	0	504	
7	0	0	0	0	500	
8	0	0	0	0	496	
9	0	0	0	0	495	
10	0	0	0	0	494	
11	0	0	0	0	495	
12	0	0	0	0	496	
13	0	0	0	0	498	
14	0	0	0	0	499	
15	0	0	0	0	500	
0	0	0	0	0	503	
1	0	0	0	0	505	
2	0	0	0	0	509	
3	0	0	0	0	508	
4	0	0	0	0	511	
5	0	0	0	0	513	
6	0	0	0	0	509	
7	0	0	0	0	504	
8	0	0	0	0	503	
9	0	0	0	0	502	
10	0	0	0	0	500	
11	0	0	0	0	499	
12	0	0	0	0	496	
13	0	0	0	0	496	
14	0	0	0	0	500	
15	0	0	0	0	502	
0	0	0	0	0	505	
1	0	0	0	0	501	
2	0	0	0	0	499	
3	0	0	0	0	495	
4	0	0	0	0	493	
5	0	0	0	0	498	
6	0	0	0	0	508	
7	0	0	0	0	511	
8	0	0	0	0	509	
9	0	0	0	0	506	
10	0	0	0	0	503	
11	0	0	0	0	498	
12	0	0	0	0	499	
13	0	0	0	0	496	
14	0	0	0	0	498	
15	0	0	0	0	503	
0	0	0	0	0	506	
1	0	0	0	0	511	
2	0	0	0	0	517	
3	0	0	0	0	518	
4	0	0	0	0	512	
5	0	0	0	0	509	
6	0	0	0	0	513	
7	0	0	0	0	519	
8	0	0	0	0	525	
9	0	0	0	0	526	
10	0	0	0	0	532	
11	0	0	0	0	531	
12	0	0	0	0	529	
13	0	0	0	0	523	
14	0	0	0	0	523	
15	0	0	0	0	521	
0	0	0	0	0	519	
1	0	0	0	0	525	
2	0	0	0	0	528	
3	0	0	0	0	527	
4	0	0	0	0	526	
5	0	0	0	0	527	
6	0	0	0	0	528	
7	0	0	0	0	524	
8	0	0	0	0	520	
9	0	0	0	0	516	
10	0	0	0	0	518	
11	0	0	0	0	523	
12	0	0	0	0	529	
13	0	0	0	0	532	
14	0	0	0	0	532	
15	0	0	0	0	524	
0	0	0	0	0	519	
1	0	0	0	0	521	
2	0	0	0	0	529	
3	0	0	0	0	527	
4	0	0	0	0	524	
5	0	0	0	0	518	
6	0	0	0	0	512	
7	0	0	0	0	506	
8	0	0	0	0	507	
9	0	0	0	0	509	
10	0	0	0	0	509	
11	0	0	0	0	512	
12	0	0	0	0	511	
13	0	0	0	0	508	
14	0	0	0	0	507	
15	0	0	0	0	504	
0	0	0	0	0	499	
1	0	0	0	0	495	
2	0	0	0	0	491	
3	0	0	0	0	488	
4	0	0	0	0	491	
5	0	0	0	0	496	
6	0	0	0	0	497	
7	0	0	0	0	495	
8	0	0	0	0	496	
9	0	0	0	0	502	
10	0	0	0	0	499	
11	0	0	0	0	490	
12	0	0	0	0	489	
13	0	0	0	0	487	
14	0	0	0	0	488	
15	0	0	0	0	489	
0	0	0	0	0	488	
1	0	0	0	0	490	
2	0	0	0	0	492	
3	0	0	0	0	494	
4	0	0	0	0	493	
5	0	0	0	0	493	
6	0	0	0	0	495	
7	0	0	0	0	497	
8	0	0	0	0	493	
9	0	0	0	0	488	
10	0	0	0	0	489	
11	0	0	0	0	492	
12	0	0	0	0	494	
13	0	0	0	0	494	
14	0	0	0	0	495	
15	0	0	0	0	492	
0	0	0	0	0	488	
1	0	0	0	0	484	
2	0	0	0	0	484	
3	0	0	0	0	488	
4	0	0	0	0	489	
5	0	0	0	0	483	
6	0	0	0	0	477	
7	0	0	0	0	480	
8	0	0	0	0	486	
9	0	0	0	0	493	
10	0	0	0	0	496	
11	0	0	0	0	496	
12	0	0	0	0	496	
13	0	0	0	0	499	
14	0	0	0	0	500	
15	0	0	0	0	499	
0	0	0	0	0	499	
1	0	0	0	0	498	
2	0	0	0	0	497	
3	0	0	0	0	504	
4	0	0	0	0	511	
5	0	0	0	0	513	
6	0	0	0	0	508	
7	0	0	0	0	508	
8	0	0	0	0	512	
9	0	0	0	0	510	
10	0	0	0	0	504	
11	0	0	0	0	499	
12	0	0	0	0	500	
13	0	0	0	0	501	
14	0	0	0	0	495	
15	0	0	0	0	497	
0	0	0	0	0	501	
1	0	0	0	0	506	
2	0	0	0	0	520	
3	0	0	0	0	519	
4	0	0	0	0	508	
5	0	0	0	0	502	
6	0	0	0	0	501	
7	0	0	0	0	499	
8	0	0	0	0	496	
9	0	0	0	0	494	
10	0	0	0	0	495	
11	0	0	0	0	499	
12	0	0	0	0	500	
13	0	0	0	0	496	
14	0	0	0	0	499	
15	0	0	0	0	505	
0	0	0	0	0	507	
1	0	0	0	0	503	
2	0	0	0	0	499	
3	0	0	0	0	510	
4	0	0	0	0	523	
5	0	0	0	0	536	
6	0	0	0	0	553	
7	0	0	0	0	567	
8	0	0	0	0	579	
9	0	0	0	0	579	
10	0	0	0	0	580	
11	0	0	0	0	589	
12	0	0	0	0	614	
13	0	0	0	0	635	
14	0	0	0	0	653	
15	0	0	0	0	675	
0	0	0	0	0	691	
1	0	0	0	0	713	
2	0	0	0	0	728	
3	0	0	0	0	737	
4	0	0	0	0	746	
5	0	0	0	0	750	
6	0	0	0	0	757	
7	0	0	0	0	774	
8	0	0	0	0	786	
9	0	0	0	0	791	
10	0	0	0	0	791	
11	0	0	0	0	784	
12	0	0	0	0	781	
13	0	0	0	0	768	
14	0	0	0	0	748	
15	0	0	0	0	728	
0	0	0	0	0	701	
1	0	0	0	0	671	
2	0	0	0	0	636	
3	0	0	0	0	595	
4	0	0	0	0	550	
5	0	0	0	0	501	
6	0	0	0	0	450	
7	0	0	0	0	401	
8	0	0	0	0	359	
9	0	0	0	0	326	
10	0	0	0	0	304	
11	0	0	0	0	292	
12	0	0	0	0	280	
13	0	0	0	0	263	
14	0	0	0	0	256	
15	0	0	0	0	255	
0	0	0	0	0	255	
1	0	0	0	0	252	
2	0	0	0	0	254	
3	0	0	0	0	264	
4	0	0	0	0	275	
5	0	0	0	0	283	
6	0	0	0	0	288	
7	0	0	0	0	291	
8	0	0	0	0	301	
9	0	0	0	0	315	
10	0	0	0	0	328	
11	0	0	0	0	347	
12	0	0	0	0	362	
13	0	0	0	0	370	
14	0	0	0	0	382	
15	0	0	0	0	398	
0	0	0	0	0	414	
1	0	0	0	0	423	
2	0	0	0	0	430	
3	0	0	0	0	440	
4	0	0	0	0	447	
5	0	0	0	0	452	
6	0	0	0	0	465	
7	0	0	0	0	478	
8	0	0	0	0	480	
9	0	0	0	0	482	
10	0	0	0	0	486	
11	0	0	0	0	492	
12	0	0	0	0	495	
13	0	0	0	0	499	
14	0	0	0	0	499	
15	0	0	0	0	493	
0	0	0	0	0	490	
1	0	0	0	0	497	
2	0	0	0	0	504	
3	0	0	0	0	506	
4	0	0	0	0	505	
5	0	0	0	0	505	
6	0	0	0	0	507	
7	0	0	0	0	510	
8	0	0	0	0	512	
9	0	0	0	0	510	
10	0	0	0	0	502	
11	0	0	0	0	500	
12	0	0	0	0	497	
13	0	0	0	0	494	
14	0	0	0	0	496	
15	0	0	0	0	499	
0	0	0	0	0	502	
1	0	0	0	0	499	
2	0	0	0	0	495	
3	0	0	0	0	496	
4	0	0	0	0	496	
5	0	0	0	0	496	
6	0	0	0	0	507	
7	0	0	0	0	513	
8	0	0	0	0	512	
9	0	0	0	0	514	
10	0	0	0	0	518	
11	0	0	0	0	517	
12	0	0	0	0	516	
13	0	0	0	0	515	
14	0	0	0	0	515	
15	0	0	0	0	515	
0	0	0	0	0	523	
1	0	0	0	0	526	
2	0	0	0	0	526	
3	0	0	0	0	516	
4	0	0	0	0	504	
5	0	0	0	0	504	
6	0	0	0	0	511	
7	0	0	0	0	511	
8	0	0	0	0	511	
9	0	0	0	0	509	
10	0	0	0	0	505	
11	0	0	0	0	499	
12	0	0	0	0	496	
13	0	0	0	0	496	
14	0	0	0	0	506	
15	0	0	0	0	509	
0	0	0	0	0	505	
1	0	0	0	0	507	
2	0	0	0	0	507	
3	0	0	0	0	507	
4	0	0	0	0	513	
5	0	0	0	0	519	
6	0	0	0	0	520	
7	0	0	0	0	514	
8	0	0	0	0	513	
9	0	0	0	0	518	
10	0	0	0	0	521	
11	0	0	0	0	517	
12	0	0	0	0	513	
13	0	0	0	0	512	
14	0	0	0	0	510	
15	0	0	0	0	508	
0	0	0	0	0	509	
1	0	0	0	0	508	
2	0	0	0	0	503	
3	0	0	0	0	499	
4	0	0	0	0	500	
5	0	0	0	0	506	
6	0	0	0	0	514	
7	0	0	0	0	521	
8	0	0	0	0	521	
9	0	0	0	0	512	
10	0	0	0	0	511	
11	0	0	0	0	518	
12	0	0	0	0	519	
13	0	0	0	0	516	
14	0	0	0	0	515	
15	0	0	0	0	516	
0	0	0	0	0	514	
1	0	0	0	0	504	
2	0	0	0	0	503	
3	0	0	0	0	505	
4	0	0	0	0	508	
5	0	0	0	0	516	
6	0	0	0	0	523	
7	0	0	0	0	524	
8	0	0	0	0	525	
9	0	0	0	0	527	
10	0	0	0	0	527	
11	0	0	0	0	525	
12	0	0	0	0	527	
13	0	0	0	0	533	
14	0	0	0	0	527	
15	0	0	0	0	520	
0	0	0	0	0	520	
1	0	0	0	0	529	
2	0	0	0	0	530	
3	0	0	0	0	526	
4	0	0	0	0	524	
5	0	0	0	0	525	
6	0	0	0	0	529	
7	0	0	0	0	531	
8	0	0	0	0	527	
9	0	0	0	0	518	
10	0	0	0	0	515	
11	0	0	0	0	516	
12	0	0	0	0	514	
13	0	0	0	0	511	
14	0	0	0	0	505	
15	0	0	0	0	503	
0	0	0	0	0	504	
1	0	0	0	0	512	
2	0	0	0	0	525	
3	0	0	0	0	526	
4	0	0	0	0	529	
5	0	0	0	0	538	
6	0	0	0	0	539	
7	0	0	0	0	533	
8	0	0	0	0	529	
9	0	0	0	0	530	
10	0	0	0	0	534	
11	0	0	0	0	536	
12	0	0	0	0	532	
13	0	0	0	0	531	
14	0	0	0	0	531	
15	0	0	0	0	534	
0	0	0	0	0	534	
1	0	0	0	0	532	
2	0	0	0	0	533	
3	0	0	0	0	533	
4	0	0	0	0	535	
5	0	0	0	0	543	
6	0	0	0	0	547	
7	0	0	0	0	547	
8	0	0	0	0	543	
9	0	0	0	0	536	
10	0	0	0	0	537	
11	0	0	0	0	545	
12	0	0	0	0	551	
13	0	0	0	0	550	
14	0	0	0	0	544	
15	0	0	0	0	542	
0	0	0	0	0	539	
1	0	0	0	0	545	
2	0	0	0	0	553	
3	0	0	0	0	553	
4	0	0	0	0	552	
5	0	0	0	0	548	
6	0	0	0	0	546	
7	0	0	0	0	547	
8	0	0	0	0	543	
9	0	0	0	0	538	
10	0	0	0	0	539	
11	0	0	0	0	543	
12	0	0	0	0	543	
13	0	0	0	0	546	
14	0	0	0	0	552	
15	0	0	0	0	551	
0	0	0	0	0	550	
1	0	0	0	0	548	
2	0	0	0	0	548	
3	0	0	0	0	546	
4	0	0	0	0	548	
5	0	0	0	0	550	
6	0	0	0	0	551	
7	0	0	0	0	550	
8	0	0	0	0	547	
9	0	0	0	0	548	
10	0	0	0	0	537	
11	0	0	0	0	532	
12	0	0	0	0	532	
13	0	0	0	0	530	
14	0	0	0	0	524	
15	0	0	0	0	525	
0	0	0	0	0	529	
1	0	0	0	0	532	
2	0	0	0	0	533	
3	0	0	0	0	534	
4	0	0	0	0	535	
5	0	0	0	0	538	
6	0	0	0	0	541	
7	0	0	0	0	540	
8	0	0	0	0	537	
9	0	0	0	0	533	
10	0	0	0	0	534	
11	0	0	0	0	529	
12	0	0	0	0	526	
13	0	0	0	0	526	
14	0	0	0	0	529	
15	0	0	0	0	527	
0	0	0	0	0	525	
1	0	0	0	0	523	
2	0	0	0	0	513	
3	0	0	0	0	506	
4	0	0	0	0	505	
5	0	0	0	0	504	
6	0	0	0	0	497	
7	0	0	0	0	488	
8	0	0	0	0	490	
9	0	0	0	0	496	
10	0	0	0	0	495	
11	0	0	0	0	491	
12	0	0	0	0	492	
13	0	0	0	0	492	
14	0	0	0	0	490	
15	0	0	0	0	491	
0	0	0	0	0	492	
1	0	0	0	0	491	
2	0	0	0	0	488	
3	0	0	0	0	489	
4	0	0	0	0	489	
5	0	0	0	0	487	
6	0	0	0	0	486	
7	0	0	0	0	483	
8	0	0	0	0	479	
9	0	0	0	0	479	
10	0	0	0	0	477	
11	0	0	0	0	468	
12	0	0	0	0	467	
13	0	0	0	0	467	
14	0	0	0	0	460	
15	0	0	0	0	455	
0	0	0	0	0	456	
1	0	0	0	0	460	
2	0	0	0	0	461	
3	0	0	0	0	457	
4	0	0	0	0	456	
5	0	0	0	0	457	
6	0	0	0	0	460	
7	0	0	0	0	460	
8	0	0	0	0	455	
9	0	0	0	0	457	
10	0	0	0	0	455	
11	0	0	0	0	455	
12	0	0	0	0	452	
13	0	0	0	0	450	
14	0	0	0	0	455	
15	0	0	0	0	456	
0	0	0	0	0	455	
1	0	0	0	0	456	
2	0	0	0	0	456	
3	0	0	0	0	455	
4	0	0	0	0	455	
5	0	0	0	0	457	
6	0	0	0	0	455	
7	0	0	0	0	452	
8	0	0	0	0	450	
9	0	0	0	0	446	
10	0	0	0	0	447	
11	0	0	0	0	447	
12	0	0	0	0	448	
13	0	0	0	0	450	
14	0	0	0	0	455	
15	0	0	0	0	457	
0	0	0	0	0	455	
1	0	0	0	0	455	
2	0	0	0	0	460	
3	0	0	0	0	461	
4	0	0	0	0	460	
5	0	0	0	0	459	
6	0	0	0	0	459	
7	0	0	0	0	458	
8	0	0	0	0	461	
9	0	0	0	0	464	
10	0	0	0	0	465	
11	0	0	0	0	463	
12	0	0	0	0	460	
13	0	0	0	0	459	
14	0	0	0	0	457	
15	0	0	0	0	454	
0	0	0	0	0	454	
1	0	0	0	0	457	
2	0	0	0	0	464	
3	0	0	0	0	466	
4	0	0	0	0	468	
5	0	0	0	0	470	
6	0	0	0	0	471	
7	0	0	0	0	464	
8	0	0	0	0	457	
9	0	0	0	0	457	
10	0	0	0	0	467	
11	0	0	0	0	473	
12	0	0	0	0	475	
13	0	0	0	0	473	
14	0	0	0	0	473	
15	0	0	0	0	478	
0	0	0	0	0	478	
1	0	0	0	0	470	
2	0	0	0	0	463	
3	0	0	0	0	465	
4	0	0	0	0	475	
5	0	0	0	0	478	
6	0	0	0	0	472	
7	0	0	0	0	469	
8	0	0	0	0	465	
9	0	0	0	0	467	
10	0	0	0	0	472	
11	0	0	0	0	472	
12	0	0	0	0	470	
13	0	0	0	0	471	
14	0	0	0	0	471	
15	0	0	0	0	469	
0	0	0	0	0	465	
1	0	0	0	0	468	
2	0	0	0	0	473	
3	0	0	0	0	474	
4	0	0	0	0	474	
5	0	0	0	0	476	
6	0	0	0	0	479	
7	0	0	0	0	480	
8	0	0	0	0	480	
9	0	0	0	0	480	
10	0	0	0	0	482	
11	0	0	0	0	482	
12	0	0	0	0	483	
13	0	0	0	0	480	
14	0	0	0	0	479	
15	0	0	0	0	482	
0	0	0	0	0	485	
1	0	0	0	0	493	
2	0	0	0	0	496	
3	0	0	0	0	502	
4	0	0	0	0	504	
5	0	0	0	0	500	
6	0	0	0	0	492	
7	0	0	0	0	485	
8	0	0	0	0	480	
9	0	0	0	0	475	
10	0	0	0	0	476	
11	0	0	0	0	468	
12	0	0	0	0	460	
13	0	0	0	0	459	
14	0	0	0	0	467	
15	0	0	0	0	479	
0	0	0	0	0	487	
1	0	0	0	0	488	
2	0	0	0	0	487	
3	0	0	0	0	487	
4	0	0	0	0	487	
5	0	0	0	0	492	
6	0	0	0	0	499	
7	0	0	0	0	500	
8	0	0	0	0	499	
9	0	0	0	0	496	
10	0	0	0	0	493	
11	0	0	0	0	493	
12	0	0	0	0	497	
13	0	0	0	0	497	
14	0	0	0	0	496	
15	0	0	0	0	496	
0	0	0	0	0	497	
1	0	0	0	0	489	
2	0	0	0	0	483	
3	0	0	0	0	486	
4	0	0	0	0	490	
5	0	0	0	0	491	
6	0	0	0	0	485	
7	0	0	0	0	478	
8	0	0	0	0	476	
9	0	0	0	0	483	
10	0	0	0	0	495	
11	0	0	0	0	500	
12	0	0	0	0	494	
13	0	0	0	0	493	
14	0	0	0	0	494	
15	0	0	0	0	497	
0	0	0	0	0	497	
1	0	0	0	0	498	
2	0	0	0	0	498	
3	0	0	0	0	497	
4	0	0	0	0	494	
5	0	0	0	0	489	
6	0	0	0	0	484	
7	0	0	0	0	486	
8	0	0	0	0	489	
9	0	0	0	0	489	
10	0	0	0	0	491	
11	0	0	0	0	493	
12	0	0	0	0	494	
13	0	0	0	0	492	
14	0	0	0	0	487	
15	0	0	0	0	484	
0	0	0	0	0	487	
1	0	0	0	0	495	
2	0	0	0	0	496	
3	0	0	0	0	495	
4	0	0	0	0	496	
5	0	0	0	0	496	
6	0	0	0	0	497	
7	0	0	0	0	496	
8	0	0	0	0	494	
9	0	0	0	0	494	
10	0	0	0	0	498	
11	0	0	0	0	498	
12	0	0	0	0	498	
13	0	0	0	0	500	
14	0	0	0	0	500	
15	0	0	0	0	498	
0	0	0	0	0	494	
1	0	0	0	0	493	
2	0	0	0	0	491	
3	0	0	0	0	487	
4	0	0	0	0	486	
5	0	0	0	0	483	
6	0	0	0	0	483	
7	0	0	0	0	483	
8	0	0	0	0	488	
9	0	0	0	0	497	
10	0	0	0	0	504	
11	0	0	0	0	503	
12	0	0	0	0	498	
13	0	0	0	0	497	
14	0	0	0	0	502	
15	0	0	0	0	503	
0	0	0	0	0	498	
1	0	0	0	0	499	
2	0	0	0	0	501	
3	0	0	0	0	503	
4	0	0	0	0	508	
5	0	0	0	0	509	
6	0	0	0	0	500	
7	0	0	0	0	494	
8	0	0	0	0	496	
9	0	0	0	0	506	
10	0	0	0	0	510	
11	0	0	0	0	507	
12	0	0	0	0	508	
13	0	0	0	0	511	
14	0	0	0	0	519	
15	0	0	0	0	531	
0	0	0	0	0	533	
1	0	0	0	0	526	
2	0	0	0	0	522	
3	0	0	0	0	522	
4	0	0	0	0	525	
5	0	0	0	0	524	
6	0	0	0	0	526	
7	0	0	0	0	530	
8	0	0	0	0	535	
9	0	0	0	0	522	
10	0	0	0	0	506	
11	0	0	0	0	508	
12	0	0	0	0	512	
13	0	0	0	0	513	
14	0	0	0	0	505	
15	0	0	0	0	505	
0	0	0	0	0	512	
1	0	0	0	0	518	
2	0	0	0	0	522	
3	0	0	0	0	523	
4	0	0	0	0	519	
5	0	0	0	0	516	
6	0	0	0	0	514	
7	0	0	0	0	509	
8	0	0	0	0	507	
9	0	0	0	0	504	
10	0	0	0	0	502	
11	0	0	0	0	499	
12	0	0	0	0	493	
13	0	0	0	0	489	
14	0	0	0	0	487	
15	0	0	0	0	484	
0	0	0	0	0	481	
1	0	0	0	0	480	
2	0	0	0	0	482	
3	0	0	0	0	480	
4	0	0	0	0	483	
5	0	0	0	0	490	
6	0	0	0	0	494	
7	0	0	0	0	494	
8	0	0	0	0	493	
9	0	0	0	0	491	
10	0	0	0	0	492	
11	0	0	0	0	492	
12	0	0	0	0	490	
13	0	0	0	0	489	
14	0	0	0	0	487	
15	0	0	0	0	485	
0	0	0	0	0	481	
1	0	0	0	0	476	
2	0	0	0	0	475	
3	0	0	0	0	478	
4	0	0	0	0	487	
5	0	0	0	0	489	
6	0	0	0	0	486	
7	0	0	0	0	482	
8	0	0	0	0	480	
9	0	0	0	0	478	
10	0	0	0	0	483	
11	0	0	0	0	488	
12	0	0	0	0	487	
13	0	0	0	0	486	
14	0	0	0	0	494	
15	0	0	0	0	501	
0	0	0	0	0	498	
1	0	0	0	0	496	
2	0	0	0	0	490	
3	0	0	0	0	483	
4	0	0	0	0	481	
5	0	0	0	0	484	
6	0	0	0	0	489	
7	0	0	0	0	484	
8	0	0	0	0	477	
9	0	0	0	0	480	
10	0	0	0	0	490	
11	0	0	0	0	494	
12	0	0	0	0	493	
13	0	0	0	0	491	
14	0	0	0	0	487	
15	0	0	0	0	484	
0	0	0	0	0	483	
1	0	0	0	0	486	
2	0	0	0	0	488	
3	0	0	0	0	487	
4	0	0	0	0	483	
5	0	0	0	0	481	
6	0	0	0	0	487	
7	0	0	0	0	499	
8	0	0	0	0	504	
9	0	0	0	0	503	
10	0	0	0	0	501	
11	0	0	0	0	492	
12	0	0	0	0	484	
13	0	0	0	0	476	
14	0	0	0	0	473	
15	0	0	0	0	479	
0	0	0	0	0	486	
1	0	0	0	0	484	
2	0	0	0	0	491	
3	0	0	0	0	498	
4	0	0	0	0	506	
5	0	0	0	0	511	
6	0	0	0	0	508	
7	0	0	0	0	503	
8	0	0	0	0	500	
9	0	0	0	0	502	
10	0	0	0	0	505	
11	0	0	0	0	510	
12	0	0	0	0	516	
13	0	0	0	0	516	
14	0	0	0	0	504	
15	0	0	0	0	496	
0	0	0	0	0	495	
1	0	0	0	0	499	
2	0	0	0	0	501	
3	0	0	0	0	500	
4	0	0	0	0	496	
5	0	0	0	0	492	
6	0	0	0	0	492	
7	0	0	0	0	495	
8	0	0	0	0	499	
9	0	0	0	0	505	
10	0	0	0	0	512	
11	0	0	0	0	521	
12	0	0	0	0	528	
13	0	0	0	0	537	
14	0	0	0	0	548	
15	0	0	0	0	563	
0	0	0	0	0	577	
1	0	0	0	0	591	
2	0	0	0	0	607	
3	0	0	0	0	620	
4	0	0	0	0	633	
5	0	0	0	0	653	
6	0	0	0	0	673	
7	0	0	0	0	695	
8	0	0	0	0	714	
9	0	0	0	0	733	
10	0	0	0	0	748	
11	0	0	0	0	762	
12	0	0	0	0	779	
13	0	0	0	0	791	
14	0	0	0	0	803	
15	0	0	0	0	811	
0	0	0	0	0	813	
1	0	0	0	0	809	
2	0	0	0	0	803	
3	0	0	0	0	789	
4	0	0	0	0	770	
5	0	0	0	0	749	
6	0	0	0	0	725	
7	0	0	0	0	693	
8	0	0	0	0	656	
9	0	0	0	0	613	
10	0	0	0	0	564	
11	0	0	0	0	516	
12	0	0	0	0	466	
13	0	0	0	0	414	
14	0	0	0	0	377	
15	0	0	0	0	352	
0	0	0	0	0	327	
1	0	0	0	0	306	
2	0	0	0	0	293	
3	0	0	0	0	283	
4	0	0	0	0	283	
5	0	0	0	0	280	
6	0	0	0	0	276	
7	0	0	0	0	276	
8	0	0	0	0	280	
9	0	0	0	0	285	
10	0	0	0	0	295	
11	0	0	0	0	293	
12	0	0	0	0	287	
13	0	0	0	0	285	
14	0	0	0	0	289	
15	0	0	0	0	311	
0	0	0	0	0	339	
1	0	0	0	0	353	
2	0	0	0	0	358	
3	0	0	0	0	359	
4	0	0	0	0	359	
5	0	0	0	0	358	
6	0	0	0	0	365	
7	0	0	0	0	384	
8	0	0	0	0	399	
9	0	0	0	0	412	
10	0	0	0	0	426	
11	0	0	0	0	438	
12	0	0	0	0	447	
13	0	0	0	0	459	
14	0	0	0	0	468	
15	0	0	0	0	475	
0	0	0	0	0	482	
1	0	0	0	0	482	
2	0	0	0	0	481	
3	0	0	0	0	481	
4	0	0	0	0	480	
5	0	0	0	0	483	
6	0	0	0	0	487	
7	0	0	0	0	496	
8	0	0	0	0	499	
9	0	0	0	0	497	
10	0	0	0	0	498	
11	0	0	0	0	502	
12	0	0	0	0	507	
13	0	0	0	0	507	
14	0	0	0	0	508	
15	0	0	0	0	511	
0	0	0	0	0	519	
1	0	0	0	0	519	
2	0	0	0	0	514	
3	0	0	0	0	503	
4	0	0	0	0	497	
5	0	0	0	0	496	
6	0	0	0	0	500	
7	0	0	0	0	502	
8	0	0	0	0	503	
9	0	0	0	0	499	
10	0	0	0	0	492	
11	0	0	0	0	493	
12	0	0	0	0	497	
13	0	0	0	0	502	
14	0	0	0	0	504	
15	0	0	0	0	503	
0	0	0	0	0	501	
1	0	0	0	0	499	
2	0	0	0	0	498	
3	0	0	0	0	499	
4	0	0	0	0	503	
5	0	0	0	0	506	
6	0	0	0	0	509	
7	0	0	0	0	508	
8	0	0	0	0	507	
9	0	0	0	0	504	
10	0	0	0	0	503	
11	0	0	0	0	502	
12	0	0	0	0	504	
13	0	0	0	0	500	
14	0	0	0	0	499	
15	0	0	0	0	503	
0	0	0	0	0	505	
1	0	0	0	0	508	
2	0	0	0	0	510	
3	0	0	0	0	509	
4	0	0	0	0	504	
5	0	0	0	0	498	
6	0	0	0	0	499	
7	0	0	0	0	497	
8	0	0	0	0	500	
9	0	0	0	0	501	
10	0	0	0	0	505	
11	0	0	0	0	506	
12	0	0	0	0	506	
13	0	0	0	0	505	
14	0	0	0	0	501	
15	0	0	0	0	505	
0	0	0	0	0	510	
1	0	0	0	0	514	
2	0	0	0	0	518	
3	0	0	0	0	521	
4	0	0	0	0	524	
5	0	0	0	0	526	
6	0	0	0	0	529	
7	0	0	0	0	532	
8	0	0	0	0	530	
9	0	0	0	0	528	
10	0	0	0	0	525	
11	0	0	0	0	526	
12	0	0	0	0	526	
13	0	0	0	0	522	
14	0	0	0	0	520	
15	0	0	0	0	515	
0	0	0	0	0	511	
1	0	0	0	0	510	
2	0	0	0	0	510	
3	0	0	0	0	509	
4	0	0	0	0	503	
5	0	0	0	0	500	
6	0	0	0	0	499	
7	0	0	0	0	495	
8	0	0	0	0	497	
9	0	0	0	0	506	
10	0	0	0	0	507	
11	0	0	0	0	513	
12	0	0	0	0	518	
13	0	0	0	0	526	
14	0	0	0	0	522	
15	0	0	0	0	519	
0	0	0	0	0	529	
1	0	0	0	0	527	
2	0	0	0	0	520	
3	0	0	0	0	516	
4	0	0	0	0	513	
5	0	0	0	0	517	
6	0	0	0	0	521	
7	0	0	0	0	519	
8	0	0	0	0	520	
9	0	0	0	0	527	
10	0	0	0	0	529	
11	0	0	0	0	528	
12	0	0	0	0	524	
13	0	0	0	0	522	
14	0	0	0	0	522	
15	0	0	0	0	521	
0	0	0	0	0	521	
1	0	0	0	0	520	
2	0	0	0	0	519	
3	0	0	0	0	521	
4	0	0	0	0	522	
5	0	0	0	0	521	
6	0	0	0	0	524	
7	0	0	0	0	527	
8	0	0	0	0	525	
9	0	0	0	0	522	
10	0	0	0	0	518	
11	0	0	0	0	512	
12	0	0	0	0	510	
13	0	0	0	0	514	
14	0	0	0	0	520	
15	0	0	0	0	524	
0	0	0	0	0	523	
1	0	0	0	0	524	
2	0	0	0	0	525	
3	0	0	0	0	529	
4	0	0	0	0	528	
5	0	0	0	0	525	
6	0	0	0	0	526	
7	0	0	0	0	531	
8	0	0	0	0	530	
9	0	0	0	0	528	
10	0	0	0	0	529	
11	0	0	0	0	533	
12	0	0	0	0	537	
13	0	0	0	0	543	
14	0	0	0	0	541	
15	0	0	0	0	533	
0	0	0	0	0	531	
1	0	0	0	0	530	
2	0	0	0	0	520	
3	0	0	0	0	524	
4	0	0	0	0	532	
5	0	0	0	0	532	
6	0	0	0	0	536	
7	0	0	0	0	533	
8	0	0	0	0	536	
9	0	0	0	0	543	
10	0	0	0	0	544	
11	0	0	0	0	543	
12	0	0	0	0	545	
13	0	0	0	0	551	
14	0	0	0	0	557	
15	0	0	0	0	566	
0	0	0	0	0	571	
1	0	0	0	0	566	
2	0	0	0	0	552	
3	0	0	0	0	543	
4	0	0	0	0	541	
5	0	0	0	0	544	
6	0	0	0	0	547	
7	0	0	0	0	556	
8	0	0	0	0	564	
9	0	0	0	0	563	
10	0	0	0	0	562	
11	0	0	0	0	561	
12	0	0	0	0	554	
13	0	0	0	0	549	
14	0	0	0	0	547	
15	0	0	0	0	546	
0	0	0	0	0	546	
1	0	0	0	0	548	
2	0	0	0	0	553	
3	0	0	0	0	553	
4	0	0	0	0	553	
5	0	0	0	0	557	
6	0	0	0	0	554	
7	0	0	0	0	547	
8	0	0	0	0	546	
9	0	0	0	0	543	
10	0	0	0	0	543	
11	0	0	0	0	541	
12	0	0	0	0	548	
13	0	0	0	0	553	
14	0	0	0	0	549	
15	0	0	0	0	550	
0	0	0	0	0	551	
1	0	0	0	0	551	
2	0	0	0	0	550	
3	0	0	0	0	548	
4	0	0	0	0	545	
5	0	0	0	0	551	
6	0	0	0	0	552	
7	0	0	0	0	543	
8	0	0	0	0	534	
9	0	0	0	0	530	
10	0	0	0	0	530	
11	0	0	0	0	530	
12	0	0	0	0	528	
13	0	0	0	0	524	
14	0	0	0	0	519	
15	0	0	0	0	520	
0	0	0	0	0	518	
1	0	0	0	0	511	
2	0	0	0	0	503	
3	0	0	0	0	497	
4	0	0	0	0	496	
5	0	0	0	0	492	
6	0	0	0	0	481	
7	0	0	0	0	472	
8	0	0	0	0	468	
9	0	0	0	0	467	
10	0	0	0	0	476	
11	0	0	0	0	485	
12	0	0	0	0	494	
13	0	0	0	0	497	
14	0	0	0	0	493	
15	0	0	0	0	491	
0	0	0	0	0	489	
1	0	0	0	0	489	
2	0	0	0	0	489	
3	0	0	0	0	493	
4	0	0	0	0	497	
5	0	0	0	0	492	
6	0	0	0	0	487	
7	0	0	0	0	485	
8	0	0	0	0	486	
9	0	0	0	0	483	
10	0	0	0	0	473	
11	0	0	0	0	466	
12	0	0	0	0	467	
13	0	0	0	0	466	
14	0	0	0	0	466	
15	0	0	0	0	464	
0	0	0	0	0	464	
1	0	0	0	0	465	
2	0	0	0	0	470	
3	0	0	0	0	471	
4	0	0	0	0	469	
5	0	0	0	0	470	
6	0	0	0	0	472	
7	0	0	0	0	462	
8	0	0	0	0	454	
9	0	0	0	0	458	
10	0	0	0	0	455	
11	0	0	0	0	446	
12	0	0	0	0	447	
13	0	0	0	0	453	
14	0	0	0	0	457	
15	0	0	0	0	456	
0	0	0	0	0	458	
1	0	0	0	0	462	
2	0	0	0	0	465	
3	0	0	0	0	467	
4	0	0	0	0	468	
5	0	0	0	0	463	
6	0	0	0	0	465	
7	0	0	0	0	465	
8	0	0	0	0	462	
9	0	0	0	0	466	
10	0	0	0	0	479	
11	0	0	0	0	481	
12	0	0	0	0	480	
13	0	0	0	0	482	
14	0	0	0	0	487	
15	0	0	0	0	490	
0	0	0	0	0	491	
1	0	0	0	0	488	
2	0	0	0	0	487	
3	0	0	0	0	483	
4	0	0	0	0	473	
5	0	0	0	0	466	
6	0	0	0	0	466	
7	0	0	0	0	466	
8	0	0	0	0	471	
9	0	0	0	0	477	
10	0	0	0	0	483	
11	0	0	0	0	486	
12	0	0	0	0	480	
13	0	0	0	0	472	
14	0	0	0	0	472	
15	0	0	0	0	474	
0	0	0	0	0	487	
1	0	0	0	0	491	
2	0	0	0	0	486	
3	0	0	0	0	493	
4	0	0	0	0	487	
5	0	0	0	0	483	
6	0	0	0	0	485	
7	0	0	0	0	486	
8	0	0	0	0	485	
9	0	0	0	0	486	
10	0	0	0	0	482	
11	0	0	0	0	484	
12	0	0	0	0	489	
13	0	0	0	0	494	
14	0	0	0	0	492	
15	0	0	0	0	489	
0	0	0	0	0	483	
1	0	0	0	0	483	
2	0	0	0	0	481	
3	0	0	0	0	482	
4	0	0	0	0	488	
5	0	0	0	0	496	
6	0	0	0	0	499	
7	0	0	0	0	498	
8	0	0	0	0	499	
9	0	0	0	0	499	
10	0	0	0	0	503	
11	0	0	0	0	502	
12	0	0	0	0	500	
13	0	0	0	0	504	
14	0	0	0	0	509	
15	0	0	0	0	505	
0	0	0	0	0	501	
1	0	0	0	0	500	
2	0	0	0	0	496	
3	0	0	0	0	486	
4	0	0	0	0	484	
5	0	0	0	0	484	
6	0	0	0	0	489	
7	0	0	0	0	494	
8	0	0	0	0	495	
