timestamp,Signal
0,0.00010860236586405925
1,0.0009190516040481965
2,0.003885638297425271
3,0.01121155760047628
4,0.025331187941542536
5,0.048391572362030996
6,0.08185903810019703
7,0.1262251089143777
8,0.1808345453499162
9,0.2438899988937459
10,0.3126604680954415
11,0.3838324168267021
12,0.4538575402435212
13,0.5191763574381251
14,0.5763399840426686
15,0.622130488882811
16,0.6537064827888853
17,0.6687428366909455
18,0.6655566167732122
19,0.6432158236192127
20,0.6016099897836864
21,0.541455817574807
22,0.46422325964425204
23,0.37201106441790194
24,0.26742938673576594
25,0.15351961987448973
26,0.033705820220333645
27,-0.08824906712201526
28,-0.20833414900110397
29,-0.3224751212917359
30,-0.4268334246569533
31,-0.518227412168227
32,-0.5945717782237911
33,-0.6550849613044826
34,-0.7001368020519702
35,-0.7308973205041586
36,-0.7490058775971248
37,-0.756335794455942
38,-0.754828371699927
39,-0.7463566627923285
40,-0.7325969583370474
41,-0.7148917739514273
42,-0.6941151371983486
43,-0.6706074222684968
44,-0.6442370147114753
45,-0.6145917074762495
46,-0.5812723801055029
47,-0.5441823669448453
48,-0.5036477534653473
49,-0.4603384392656287
50,-0.41513990352907304
51,-0.3691062712760916
52,-0.3234618711489231
53,-0.27953294820486574
54,-0.23858126559177842
55,-0.20163315115794175
56,-0.1693813594142409
57,-0.1421555451097068
58,-0.11993644754498674
59,-0.1023906352823912
60,-0.08890312817740742
61,-0.07862552960281012
62,-0.07058192917720538
63,-0.06382497285646702
64,-0.057581076169122426
65,-0.05133360516069328
66,-0.04483026459313428
67,-0.0380265070533068
68,-0.030993434934100818
69,-0.023831734675301336
70,-0.016640341731068924
71,-0.00955474896778351
72,-0.002796360250234361
73,0.0033331444203894963
74,0.008504849865511544
75,0.012423337463517299
76,0.01488229276476773
77,0.01581851357226526
78,0.015364476073333355
79,0.013889005397034672
80,0.012002521808864816
81,0.010496703744570514
82,0.010210673173522488
83,0.011862722775716391
84,0.015899823063752906
85,0.022401741908144923
86,0.03107392264072604
87,0.04133463544204203
88,0.052445447383971305
89,0.06362357195552559
90,0.07412008017306573
91,0.08328846116514993
92,0.09065960734597112
93,0.09599892295534168
94,0.09930856125655968
95,0.10077736275174878
96,0.10072085562398639
97,0.0995417237127292
98,0.09770606977224763
99,0.0957204836021482
100,0.09409991205742538
101,0.09331865025782647
102,0.09373763760493117
103,0.09550763008562016
104,0.09848598172433935
105,0.10223867208796679
106,0.10614958506061993
107,0.10957501910182355
108,0.11196721118286734
109,0.11293757919934715
110,0.11227329623979422
111,0.10993224486379702
112,0.10602750705710637
113,0.10079840694700745
114,0.09457040456619661
115,0.08771616407559057
116,0.08062702479397385
117,0.0736927816937674
118,0.06728036816148635
119,0.06170374650418662
120,0.05717911855695986
121,0.05376957112061821
122,0.05135449134788914
123,0.04966414182262059
124,0.04836818345103437
125,0.04716910097698945
126,0.045872616924883904
127,0.044432319477216514
128,0.04295983134442672
129,0.04168783686512479
130,0.04089181088767023
131,0.04080237630291067
132,0.04154469135488141
133,0.04311943502166893
134,0.04542593039476098
135,0.048319327824481624
136,0.05167241079822339
137,0.05541504377525989
138,0.05954986601072803
139,0.06413803111828763
140,0.06924546675924045
141,0.07488299642903579
142,0.08098703677668018
143,0.08743308577023425
144,0.0940444119887309
145,0.10058923072630081
146,0.10678011539405509
147,0.11227910497739214
148,0.11670850002377835
149,0.11966585593520437
150,0.12073173952448678
151,0.1194666961356107
152,0.1154218492080143
153,0.10819366679156882
154,0.09751248582631496
155,0.08331435096903454
156,0.06576348462618749
157,0.04522889632326239
158,0.022230663306529383
159,-0.0026040623836659353
160,-0.02853239294901631
161,-0.05464824738527361
162,-0.07983985062655011
163,-0.10281095965797817
164,-0.12224583534415202
165,-0.13711283988916198
166,-0.14696962380220763
167,-0.1521045488810776
168,-0.15341912096808621
169,-0.1520875245195747
170,-0.14914751145063027
171,-0.14516750635831474
172,-0.14004881725703772
173,-0.13299575143189032
174,-0.12268774764401973
175,-0.10762723243446663
176,-0.0865489667585192
177,-0.058736380636938895
178,-0.02415643073697755
179,0.016543485428558404
180,0.06209473544858444
181,0.11070773713840106
182,0.16022565289361346
183,0.20832933572302456
184,0.25281129946372294
185,0.2919196151129554
186,0.3246654599671689
187,0.35093446281078244
188,0.37135291640768675
189,0.38701331097232505
190,0.3991858674413283
191,0.40907305525855614
192,0.4176319901283386
193,0.425479277996422
194,0.4328696170322612
195,0.43972918288179885
196,0.4457241422443319
197,0.4503469385144816
198,0.45301103806085796
199,0.4531447081703093
200,0.4502646618406772
201,0.44401400950234227
202,0.4341651794705553
203,0.42059881172632113
204,0.4032869895675959
205,0.3823218169646259
206,0.35798932146014595
207,0.330834027620518
208,0.301671641424642
209,0.2715430463935943
210,0.24161085888696573
211,0.21302823356480788
212,0.18683522118098156
213,0.16389438354549532
214,0.14483671371269952
215,0.1300090890873157
216,0.11942535866574182
217,0.11273167001420445
218,0.10924642510331613
219,0.10810746555604792
220,0.10844078636886399
221,0.10946923720047173
222,0.1105889952873146
223,0.11144001529150441
224,0.11192546744667535
225,0.11215595283786833
226,0.1123599668651431
227,0.11280911524145215
228,0.11378423357465489
229,0.11558345621371469
230,0.11851172849861609
231,0.12275597828822625
232,0.1281779630237987
233,0.13421455417799658
234,0.13997221445530456
235,0.1443996153442409
236,0.1464471451328135
237,0.14522621603597732
238,0.14015288930314945
239,0.13102568510270968
240,0.11803695490593803
241,0.10175104050394902
242,0.08304819867282896
243,0.06300896189292182
244,0.04275362337021825
245,0.023289970217762076
246,0.0054172039826279016
247,-0.010280869778659663
248,-0.023365396516678162
249,-0.033482674847374494
250,-0.04038738924417638
251,-0.04401139563246888
252,-0.04449839196092444
253,-0.04217230637208341
254,-0.03747128155416324
255,-0.030930166303781596
256,-0.023254722655280603
257,-0.015405880623712584
258,-0.008571084725449023
259,-0.004007984432015744
260,-0.0028482000093500233
261,-0.005917826953201895
262,-0.013587193741846635
263,-0.025701269987901735
264,-0.04163314411547469
265,-0.06043087198073205
266,-0.08100696188169479
267,-0.10232245209887231
268,-0.12350845263020128
269,-0.14389681694001252
270,-0.16298378728865787
271,-0.18037060338736582
272,-0.1957178413721566
273,-0.208729237104779
274,-0.21916115092697808
275,-0.2268521278260333
276,-0.23175960487140565
277,-0.23398489937673247
278,-0.23377564146019433
279,-0.23149705268092544
280,-0.22758575268065936
281,-0.2225290282237358
282,-0.21687799718514247
283,-0.21124194801131335
284,-0.20621695768081452
285,-0.20227405388200856
286,-0.19968153144197792
287,-0.19849464854427307
288,-0.19858092184418044
289,-0.1996500356642505
290,-0.20128401157979192
291,-0.20297258116098274
292,-0.20416311896622322
293,-0.20432262460975276
294,-0.2029957178397473
295,-0.199855693580035
296,-0.19475296332309291
297,-0.1877427010252827
298,-0.17906995392606437
299,-0.16912775023718735
300,-0.15841005743800995
301,-0.14745323253985507
302,-0.13677445350771006
303,-0.1268357502124758
304,-0.11803275298747443
305,-0.11068675699533881
306,-0.10503299579226626
307,-0.10120765148312526
308,-0.09923472552801876
309,-0.09901612203090236
310,-0.10033251239035675
311,-0.10286338054983345
312,-0.1062266455085716
313,-0.11002210165755444
314,-0.11386366274419286
315,-0.11740861696229471
316,-0.12039382365806237
317,-0.1226623561084055
318,-0.12415846301653602
319,-0.1248923462629935
320,-0.12490005603789163
321,-0.12422520117221242
322,-0.12292200202684413
323,-0.12106143544134347
324,-0.11873387530399733
325,-0.11604822536215605
326,-0.11312698158527205
327,-0.11010579647163199
328,-0.10714595846270974
329,-0.10444603864310212
330,-0.10222677164421115
331,-0.10069207748156928
332,-0.09999273415218494
333,-0.1001950138470059
334,-0.10125128606474422
335,-0.10300263032419608
336,-0.10522587967389872
337,-0.10768882861164515
338,-0.11018640767826646
339,-0.11256114915316376
340,-0.1147112093083442
341,-0.1165849354436452
342,-0.11816489668086651
343,-0.11944883123090279
344,-0.12043743602128477
345,-0.12112892129118233
346,-0.12150719115403515
347,-0.12152216516953974
348,-0.12108525273277751
349,-0.12009571247541966
350,-0.11848003262801253
351,-0.11621663455046187
352,-0.11333935866307253
353,-0.10992880352658073
354,-0.10610012003478064
355,-0.10199299260065908
356,-0.09776309901606894
357,-0.0935690165441304
358,-0.08955600553026749
359,-0.08584653811138315
360,-0.08253542833791139
361,-0.07966956408237642
362,-0.0772139114332496
363,-0.07504467544202796
364,-0.07298959939930459
365,-0.07088180847043807
366,-0.06859345082489553
367,-0.06604667996613871
368,-0.0632111493214093
369,-0.0600982323948418
370,-0.05675677073748952
371,-0.05326393246648566
372,-0.04970715393063487
373,-0.04616908590969976
374,-0.042731496146734875
375,-0.039494432202390364
376,-0.0365864998974742
377,-0.034148915121256826
378,-0.03230171964084258
379,-0.03111440225770085
380,-0.030596446074286507
381,-0.030703776399808386
382,-0.031339830980104656
383,-0.032345142641862765
384,-0.03350304363445446
385,-0.03458438682617606
386,-0.03542062597660661
387,-0.03596223700674603
388,-0.03626429920223178
389,-0.036411575743115
390,-0.03647385357824225
391,-0.03651230467452793
392,-0.03657166107540438
393,-0.036642849873929434
394,-0.03664161175828047
395,-0.03642181472889157
396,-0.03579738725786711
397,-0.03454834356684801
398,-0.03241925876054793
399,-0.029132174418144457
400,-0.02441744023208425
401,-0.018052713689063072
402,-0.00991187271839854
403,-5.1946938864233035e-05
404,0.011149965908130085
405,0.022891705543172724
406,0.03400654058354306
407,0.04322865457386928
408,0.04953496937230677
409,0.0523594875176661
410,0.05160362966997767
411,0.04754723574294238
412,0.04076610514326442
413,0.03204822499236573
414,0.022284898959321082
415,0.012374636260538469
416,0.003173140281729283
417,-0.00453977009344465
418,-0.010114842095389478
419,-0.01308692916389512
420,-0.013186011694248179
421,-0.010324611649004417
422,-0.004608430527203478
423,0.00364333764279152
424,0.013931968974715133
425,0.02567223834118544
426,0.03825387354251639
427,0.05100551505403754
428,0.06313044261154825
429,0.07372758131197384
430,0.08189702321898817
431,0.08684255898001873
432,0.08793261647535502
433,0.08475035105185184
434,0.07715204799058532
435,0.0653161595320358
436,0.04976047147245993
437,0.031307409713935724
438,0.010986752464201471
439,-0.01009845463297871
440,-0.030889930121307602
441,-0.0504454461043723
442,-0.06796504014004011
443,-0.08277983029440468
444,-0.09432087699459657
445,-0.10210825663959168
446,-0.1057923088068599
447,-0.10522919746047185
448,-0.10053702453711884
449,-0.09209412032527496
450,-0.08048027356028545
451,-0.0663872989246345
452,-0.05052941325650287
453,-0.03357376756309921
454,-0.016111163724878332
455,0.0013083283229037737
456,0.01810072787077612
457,0.033615616230503846
458,0.047177553580087406
459,0.05816193468985674
460,0.06607141586863856
461,0.0705993552900232
462,0.07166402390066522
463,0.06940662670759908
464,0.0641688789825793
465,0.05646587013379119
466,0.046943837065608326
467,0.03631110132041241
468,0.025262032351970762
469,0.014427478759446707
470,0.00436484290637551
471,-0.004436090858423674
472,-0.011567760730741172
473,-0.01672754385515022
474,-0.019704726072811412
475,-0.020332957158378125
476,-0.018439498970912797
477,-0.013831499741085735
478,-0.006382087560658054
479,0.0037999564522833164
480,0.016242542853620406
481,0.030088805424942574
482,0.04414256320184901
483,0.05697204327554206
484,0.06710051082450341
485,0.07325215882142422
486,0.07456830868046842
487,0.0707246280027183
488,0.06193372593233798
489,0.048874900668687354
490,0.032597006795950484
491,0.01440071781341049
492,-0.004297837379228134
493,-0.022099662751832037
494,-0.037755858990079015
495,-0.05033487005885283
496,-0.059389826943107994
497,-0.06500938334251287
498,-0.06769859440782333
499,-0.06817414911294095
500,-0.06719141916716398
501,-0.06544779557205974
502,-0.06354265432369553
503,-0.06196063588217721
504,-0.061053212828070816
505,-0.061013287596926785
506,-0.06186272588247497
507,-0.06347452503366972
508,-0.06562459417310844
509,-0.06804931751306521
510,-0.07049214502514156
511,-0.07273278327837196
512,-0.07460129858975875
513,-0.07598814429425325
514,-0.07685034802312093
515,-0.07720083956963908
516,-0.07707971807655424
517,-0.07651983462194813
518,-0.07552004202747288
519,-0.07404102144723569
520,-0.07202746452955623
521,-0.06943891323241431
522,-0.06627124499985383
523,-0.06256259687549402
524,-0.058381897569540764
525,-0.05380532806721958
526,-0.04889555599259178
527,-0.04369631442580098
528,-0.03824332367171754
529,-0.032587430848347795
530,-0.026823349851577687
531,-0.02110141440218526
532,-0.015597622073001662
533,-0.010457248207039827
534,-0.00575919970466815
535,-0.0015254869390746132
536,0.0022430642047213387
537,0.0055377938209597395
538,0.008333861898257819
539,0.010595940635570403
540,0.012290317259869893
541,0.013401254843612048
542,0.01393964809707825
543,0.013926726487701463
544,0.013362107661562806
545,0.01221034434908882
546,0.010428288215348691
547,0.008024564849821789
548,0.0051156821662870664
549,0.0019358216262946443
550,-0.0012115379470430214
551,-0.0040236785204355524
552,-0.00624790963903724
553,-0.0077031719205947575
554,-0.008293496106725178
555,-0.008035306676137386
556,-0.007097769829730625
557,-0.005820585704855218
558,-0.004677988092391902
559,-0.00419623115436318
560,-0.004850890468513731
561,-0.0069727582303503914
562,-0.01069296627087362
563,-0.015945485797223782
564,-0.022513482681281664
565,-0.03007674587262198
566,-0.03822904820996248
567,-0.04647374487071745
568,-0.0542100486444631
569,-0.06069698486854403
570,-0.0649918169194659
571,-0.06591280286535992
572,-0.062094155608601084
573,-0.05212387066754989
574,-0.034688852538257375
575,-0.008706195225442736
576,0.02653685294255298
577,0.07126809343126765
578,0.12518556387921384
579,0.18746158227449106
580,0.2567638089605475
581,0.33130702917073346
582,0.4089522599992205
583,0.4873309837338
584,0.563960818988272
585,0.6363437456948395
586,0.7020534121073971
587,0.7588036861052698
588,0.8044850471945418
589,0.8371766982591132
590,0.8551539111351946
591,0.8569186463641794
592,0.8412991485648199
593,0.8076396448426912
594,0.756015290988438
595,0.6873433502510448
596,0.6033273014495355
597,0.5063112997453534
598,0.3991575007692541
599,0.28516912049775534
600,0.1680023630935393
601,0.0515142631928029
602,-0.06045580657975368
603,-0.16434396113406213
604,-0.2571166232792335
605,-0.33646450790524124
606,-0.40090884656466014
607,-0.44983902212519467
608,-0.483494657037682
609,-0.5028827510936699
610,-0.5096310519324354
611,-0.5058007148155189
612,-0.4936859924453556
613,-0.4756245661718657
614,-0.45383741189937193
615,-0.43030445210767904
616,-0.4066654516172204
617,-0.3841464055599928
618,-0.3635470201674574
619,-0.34530181621974465
620,-0.3295657826752933
621,-0.31629192945807594
622,-0.30531663448369056
623,-0.29645030362073155
624,-0.28951305467294
625,-0.2842559378059592
626,-0.28021982784653177
627,-0.276668348714324
628,-0.2726520085233082
629,-0.2671496175832041
630,-0.25922221241911797
631,-0.24813793118928903
632,-0.23344369538435822
633,-0.21498815705833302
634,-0.1929072132434749
635,-0.16757514667603957
636,-0.13953668029315483
637,-0.10943453054456087
638,-0.07793008952774795
639,-0.04562266256759549
640,-0.01298446565451662
641,0.019646940791938655
642,0.05195387337808577
643,0.08343410737724048
644,0.11327290045630349
645,0.14039682866936234
646,0.16363956605206262
647,0.18189591043310074
648,0.19420858657404452
649,0.1998004657568588
650,0.19811841991254223
651,0.18896595277794426
652,0.17268249115011303
653,0.150218939564356
654,0.12306129146071355
655,0.09309855227565982
656,0.06250008005254784
657,0.0335708470474328
658,0.00854767565831076
659,-0.010651294987281706
660,-0.02267031200587892
661,-0.02687605357879005
662,-0.023390046066016128
663,-0.013002893062794743
664,0.0030102149948579506
665,0.023129596286230656
666,0.04579371481684705
667,0.06949780143064858
668,0.092832260995956
669,0.11454783044564419
670,0.13364533336415949
671,0.14941716747665792
672,0.1614258063106652
673,0.16947569361677978
674,0.17360176180762021
675,0.17404707216403462
676,0.171220338618276
677,0.16564432246117536
678,0.15788167064917066
679,0.14843322020832517
680,0.13767502784853808
681,0.12590166131261932
682,0.11345601953858246
683,0.10088096512857729
684,0.08900349246877243
685,0.0788487514298815
686,0.07138749778852217
687,0.06725610394816586
688,0.06656860905383911
689,0.06884554836135263
690,0.07307038990600864
691,0.07789705796125222
692,0.08197162182481922
693,0.08423733826902158
694,0.0840926039915388
695,0.0813873829030609
696,0.07633526949893138
697,0.06940754892893199
698,0.06123574616300384
699,0.05253335690477972
700,0.0440307385097814
701,0.03640859559107906
702,0.030233836394014824
703,0.025910228351216598
704,0.02364392158194583
705,0.02342124950696719
706,0.025005689395377312
707,0.027960222657558615
708,0.03169064594953573
709,0.035502299646624796
710,0.03866775220721743
711,0.04050393523922317
712,0.04045693258543871
713,0.03819840931412366
714,0.033730282353922544
715,0.02745804228979735
716,0.020166671298802355
717,0.012868290642360935
718,0.006566561390535977
719,0.002027252192288469
720,-0.00037228480023931716
721,-0.0006883328934851635
722,0.0006444904658709081
723,0.002949866532606365
724,0.0054790988703297865
725,0.007542329555492363
726,0.008566362936481168
727,0.008109145066763213
728,0.00588473836915073
729,0.0018206607643597842
730,-0.0038744457416440277
731,-0.010674612137848542
732,-0.01776442249417519
733,-0.024137996772050793
734,-0.028752841825157173
735,-0.030706956886664298
736,-0.0293885281642504
737,-0.024546632595167504
738,-0.0162837055286398
739,-0.005018327085888802
740,0.008557698407423268
741,0.023544536361429523
742,0.03892766768822831
743,0.05366911644621246
744,0.06675919517009898
745,0.0772379898149946
746,0.08425184116534426
747,0.08719049789065762
748,0.0858529053334975
749,0.08052524072650824
750,0.07191573153317808
751,0.06101038755867631
752,0.04894866261934314
753,0.03694877049665097
754,0.026238592192125324
755,0.01794563440800651
756,0.012955450074098679
757,0.011797576189557527
758,0.014612618278020203
759,0.021196467722934847
760,0.031077184232118447
761,0.04360258361478007
762,0.05804368854965843
763,0.07370318564951293
764,0.08999641016514913
765,0.10648568331797924
766,0.12287298267518322
767,0.1389587374717311
768,0.154579024601333
769,0.16954608712903596
770,0.18361307290647003
771,0.1964710951877792
772,0.2077734041757685
773,0.2171744374089409
774,0.2243803355783736
775,0.22920393285953844
776,0.23160633324011587
777,0.23172271953478424
778,0.22987422174964534
779,0.22654534565414533
780,0.22231717400010814
781,0.21778875256485683
782,0.21352424194264516
783,0.21001668604787005
784,0.20763479551485262
785,0.20655993957994423
786,0.20675663529828534
787,0.20799787488666535
788,0.20992752246305632
789,0.2121290753185563
790,0.21417909833068405
791,0.21567578148378921
792,0.21624750448706406
793,0.21556594625705588
794,0.21338361214234533
795,0.20957836270063154
796,0.20416867888613155
797,0.19728456788317889
798,0.1891139948714142
799,0.17986354610902072
800,0.1697550763855442
801,0.1590436181077214
802,0.1480262995955101
803,0.13703199666474702
804,0.12639900537798227
805,0.11644374155636837
806,0.10742781145318368
807,0.09953882339465392
808,0.09288970323822532
809,0.08752841506228945
810,0.08345179912125072
811,0.08062046048652326
812,0.07896548907182363
813,0.0783807054878703
814,0.0787072093677057
815,0.07972364139714301
816,0.0811549525783686
817,0.08269443456737548
818,0.0840169842159409
819,0.08477971325458027
820,0.0846225230641799
821,0.08317681593262397
822,0.08009139407474634
823,0.07507605024019802
824,0.06795103310060494
825,0.05869780236041455
826,0.04750201257198857
827,0.03475922828007107
828,0.02102427846917575
829,0.006921117908177801
830,-0.006951705617683865
831,-0.020088654531845617
832,-0.03210733380380082
833,-0.04275515523477078
834,-0.05190619214725538
835,-0.059552354551130414
836,-0.06579070954624458
837,-0.07080027907269315
838,-0.07480108028908264
839,-0.07800539487231879
840,-0.08058174195855201
841,-0.08264462237553735
842,-0.08426697380853533
843,-0.08549748978312266
844,-0.08637342117314337
845,-0.08694426834037232
846,-0.08730909607512434
847,-0.08763710091506988
848,-0.08815615947054956
849,-0.08912451048574532
850,-0.09079347715454915
851,-0.09336254103507462
852,-0.09694170242700371
853,-0.10153584248360781
854,-0.10705279906659083
855,-0.1133230212966625
856,-0.12010869330819259
857,-0.12710454203152358
858,-0.13396154118469428
859,-0.1403378398060724
860,-0.1459452110960238
861,-0.1505695897978037
862,-0.1540697093717236
863,-0.15636859734792255
864,-0.15745385727820485
865,-0.1573874517349281
866,-0.15629687838236964
867,-0.15432909754083882
868,-0.1515901009121428
869,-0.14810483496471258
870,-0.14383402122193514
871,-0.138768326586918
872,-0.13304208694981678
873,-0.12697067441260657
874,-0.12099224789387192
875,-0.1155719098574567
876,-0.11112434712575563
877,-0.10797463153218768
878,-0.10634594575674872
879,-0.10635442786487591
880,-0.10801049466301771
881,-0.11123079394675436
882,-0.11584295604448308
883,-0.12157090747532667
884,-0.12802396904049274
885,-0.1347204125393444
886,-0.14114290830794815
887,-0.14679759151051125
888,-0.15126082878341465
889,-0.15421691372681537
890,-0.15548472838544383
891,-0.15502458632154206
892,-0.1529305606853015
893,-0.14941959130426571
894,-0.14480981367419163
895,-0.13947419694772725
896,-0.13378117828590458
897,-0.1280579961587613
898,-0.12259529775560123
899,-0.11766814034196811
900,-0.11353961139741267
901,-0.11044106410072933
902,-0.10854105820829238
903,-0.1079227123196819
904,-0.10858557794364711
905,-0.11046435191784154
906,-0.1134387562988841
907,-0.11731619560520029
908,-0.12180008882689732
909,-0.12648097847439846
910,-0.1308712323274965
911,-0.13447091127433752
912,-0.13683728128523046
913,-0.13763743955308216
914,-0.1366775624591679
915,-0.13391005440362647
916,-0.12942279356442116
917,-0.12341714097044745
918,-0.11618465415652972
919,-0.10808823645109807
920,-0.09954217921165627
921,-0.09098208497318884
922,-0.08282266816119015
923,-0.07541249068563674
924,-0.06900042091325405
925,-0.06372159257188152
926,-0.05959616667613969
927,-0.056531864798298484
928,-0.05433810328508147
929,-0.052767910526154135
930,-0.051585004666816814
931,-0.05062719769707003
932,-0.04983222884920319
933,-0.049221377940191595
934,-0.04886972750980263
935,-0.048880684361045514
936,-0.049353463896554324
937,-0.05034415390431519
938,-0.05184481444075231
939,-0.05378952968043981
940,-0.05606775522775512
941,-0.0585329272027239
942,-0.06101955718102606
943,-0.06337563722749838
944,-0.0654908379011332
945,-0.06730540719385507
946,-0.06882190485975077
947,-0.07014987631562253
948,-0.07156938270611551
949,-0.07356780241439094
950,-0.07682058685239464
951,-0.08210909054888602
952,-0.09018171191476591
953,-0.10159248970875062
954,-0.11657031740263339
955,-0.13494877107255465
956,-0.1561523654170864
957,-0.17922758692686103
958,-0.202916820549256
959,-0.22577623532642552
960,-0.24633033108550792
961,-0.2632392700121163
962,-0.2754530990514804
963,-0.2823550959106622
964,-0.28387431542478053
965,-0.2804777012163432
966,-0.2730004388069766
967,-0.2624091305054993
968,-0.2496216658434979
969,-0.23542340340798062
970,-0.22044681449505446
971,-0.20517663100640143
972,-0.18996811935889035
973,-0.17507618498951358
974,-0.1606751647620621
975,-0.1468352262585173
976,-0.13345905576016898
977,-0.1202311555485215
978,-0.10662216885961881
979,-0.09196667400851466
980,-0.07562268751043481
981,-0.05717143384492374
982,-0.03656755402004435
983,-0.01417214319580519
984,0.009331664829256927
985,0.03307608755713061
986,0.056121404495356284
987,0.07751129770560679
988,0.09628198458071348
989,0.11145474257797494
990,0.1220591024903939
991,0.12723507358880218
992,0.12639814884968448
993,0.11938083687354785
994,0.10649316305829014
995,0.08850715294960927
996,0.06657619022979475
997,0.04210316819743711
998,0.016598875539873922
999,-0.008432608380854165
1000,-0.031581473532649715
1001,-0.05161128563387941
1002,-0.06753839325653951
1003,-0.07870300304962763
1004,-0.08481084070371857
1005,-0.08592250978377326
1006,-0.08238628162325244
1007,-0.07474670607672161
1008,-0.06367740463675324
1009,-0.049956160443162145
1010,-0.03445485206643077
1011,-0.018102668945346404
1012,-0.0018214105096865326
1013,0.013525134592811329
1014,0.02714883643422748
1015,0.038360599686935816
1016,0.046655321818158665
1017,0.051854446992498096
1018,0.05421771668418765
1019,0.0544375105096643
1020,0.053510688659006565
1021,0.05254418297387863
1022,0.05255906709224856
1023,0.05433628510063004
1024,0.05832302175765193
1025,0.06460712682775215
1026,0.07295711229072173
1027,0.08291032541044321
1028,0.09387578795112882
1029,0.10521486006467631
1030,0.11628979974828349
1031,0.1264890363681998
1032,0.13523579791575221
1033,0.14201223179029315
1034,0.14642710687169413
1035,0.1482831338401935
1036,0.1475888838150926
1037,0.14453193992959726
1038,0.13945788442510706
1039,0.13286177727986354
1040,0.12536183640081613
1041,0.11763981695262872
1042,0.11037381940923056
1043,0.10418344859759042
1044,0.09957918650105958
1045,0.09690976391356203
1046,0.09631110282485507
1047,0.09767280047181896
1048,0.10065219898601498
1049,0.10475450100902958
1050,0.10945952821280387
1051,0.11432427451760202
1052,0.11897961249403174
1053,0.12303495741731744
1054,0.1260065718859592
1055,0.1273441395963927
1056,0.12651604300986968
1057,0.1230789521641666
1058,0.11670731813750831
1059,0.1072140215172446
1060,0.09460027615072006
1061,0.07912603969382781
1062,0.06135129504404762
1063,0.04211517268469514
1064,0.022447805715373626
1065,0.0034164497496323473
1066,-0.014052767406630222
1067,-0.029281564153191154
1068,-0.04182142406066795
1069,-0.05137883887095471
1070,-0.05778028736462951
1071,-0.06098789355263127
1072,-0.06113782717682414
1073,-0.05859333094979725
1074,-0.05397215716648066
1075,-0.048073181139962805
1076,-0.04170636524415809
1077,-0.03553418303783008
1078,-0.03000250032457112
1079,-0.02534482348225124
1080,-0.02161344158950449
1081,-0.018701400094977255
1082,-0.016355600486223025
1083,-0.014232217265583474
1084,-0.012018506209763816
1085,-0.009557702915221436
1086,-0.006899698197760747
1087,-0.004268731810208732
1088,-0.00198794830384487
1089,-0.000392054659810438
1090,0.00026336217626155586
1091,-0.00012511766383179658
1092,-0.001497017695426792
1093,-0.003677597628297053
1094,-0.00642996548357189
1095,-0.009479407125425636
1096,-0.012532377028982833
1097,-0.015307285387119843
1098,-0.017573228765265247
1099,-0.019190268614242313
1100,-0.020142740872734665
1101,-0.020555733663751408
1102,-0.020691099408891397
1103,-0.020913970325296367
1104,-0.021615508564623232
1105,-0.023104984970231366
1106,-0.025507598409943127
1107,-0.02869469268553956
1108,-0.032265017309445476
1109,-0.03559314976180966
1110,-0.03794023965142931
1111,-0.03859304436158638
1112,-0.03699024402559283
1113,-0.03281048948688391
1114,-0.026009625064353663
1115,-0.01680333795702826
1116,-0.005607889864603689
1117,0.007031108807582932
1118,0.020496341940154896
1119,0.03414034692604044
1120,0.04731810868648158
1121,0.05941581566078667
1122,0.06987966797667504
1123,0.0782401687623191
1124,0.08412976059414917
1125,0.08731027316507092
1126,0.08771983113296446
1127,0.08551201637034943
1128,0.08104992445004076
1129,0.07485384619919762
1130,0.06753352366266184
1131,0.059727966390211246
1132,0.05204941322047242
1133,0.045025547577803235
1134,0.03905228409720438
1135,0.034376027498158254
1136,0.03112123097513616
1137,0.029364687623215088
1138,0.029222133259873356
1139,0.0308947342694662
1140,0.0346512421292788
1141,0.040764109173331904
1142,0.04945119259246288
1143,0.060873487326440434
1144,0.07517571762854859
1145,0.09250811983347466
1146,0.11301210006122377
1147,0.13680367397567275
1148,0.1639645141081168
1149,0.19451579772481895
1150,0.2283719113090004
1151,0.26530612749453025
1152,0.30494826759739685
1153,0.3468007750423131
1154,0.39025679673715513
1155,0.43462152163534906
1156,0.47913563761015293
1157,0.5229883109428698
1158,0.5653174966655563
1159,0.605209671798315
1160,0.6417071039538813
1161,0.673818603306081
1162,0.70052739320621
1163,0.7208002456901429
1164,0.7336063497924995
1165,0.7379417903888513
1166,0.7328493034766207
1167,0.7174427847892692
1168,0.6909609614873025
1169,0.6528534090381325
1170,0.6028771226401441
1171,0.5411820876711829
1172,0.46836751227736984
1173,0.385495805054557
1174,0.294065344212051
1175,0.19594425048483435
1176,0.09326585523753654
1177,-0.01170017222105328
1178,-0.11667032298506476
1179,-0.2194342332234959
1180,-0.3179098369569756
1181,-0.4101897238833192
1182,-0.49457126811850294
1183,-0.5695470627148205
1184,-0.6337805266114415
1185,-0.6861326676936488
1186,-0.7257622807495314
1187,-0.7522443915642214
1188,-0.7656387999386958
1189,-0.7664902332721708
1190,-0.7557827787958024
1191,-0.734871430720184
1192,-0.7053964010456465
1193,-0.6691783322513122
1194,-0.6280948523654101
1195,-0.5839481045021538
1196,-0.5383497652898144
1197,-0.49265805464737766
1198,-0.44797571348062526
1199,-0.40517605980997745
1200,-0.36492209803631714
1201,-0.3276809516840066
1202,-0.29374589618122404
1203,-0.26324920206098784
1204,-0.23615231473926518
1205,-0.21224415280344086
1206,-0.19117734735147007
1207,-0.17252538156838454
1208,-0.15583464618432147
1209,-0.1406746578531021
1210,-0.1266941320628158
1211,-0.113660761461513
1212,-0.10145557247662236
1213,-0.09003290825346341
1214,-0.07938676103451908
1215,-0.06954101825935004
1216,-0.06054549063359632
1217,-0.05246798201721265
1218,-0.04539545984264224
1219,-0.03943848546587783
1220,-0.03471522009001757
1221,-0.03131364541681965
1222,-0.02924472759208159
1223,-0.028400577309870535
1224,-0.028547251033852975
1225,-0.029368958764611496
1226,-0.030531382225357024
1227,-0.03172186328033911
1228,-0.032666014889595675
1229,-0.033135600434223006
1230,-0.03294146261090219
1231,-0.031916608404756394
1232,-0.02991850278003075
1233,-0.026857234296441664
1234,-0.022724862602546646
1235,-0.01760313801676858
1236,-0.011648476285401629
1237,-0.005070850851605438
1238,0.0018813779994383494
1239,0.008929584942196925
1240,0.015777006096626724
1241,0.022148752707521285
1242,0.027854250504956216
1243,0.03283081236108336
1244,0.03714277826571388
1245,0.040936004943476614
1246,0.04436927488793772
1247,0.047558972995111845
1248,0.050543970708683314
1249,0.05326241784170003
1250,0.055559437542110936
1251,0.05723183202585481
1252,0.05808462711104427
1253,0.05799126695955066
1254,0.05695645094417998
1255,0.05515451788322539
1256,0.052916803018379324
1257,0.05066377615085823
1258,0.04880610241453973
1259,0.047669201254927324
1260,0.047465685008888314
1261,0.04826889940253007
1262,0.049962094603690436
1263,0.05222861987415359
1264,0.05463895241840297
1265,0.05678539655929093
1266,0.05837808051347075
1267,0.05928070499738418
1268,0.059510607231639395
1269,0.059200582197269244
1270,0.058511372776314144
1271,0.057542414703506864
1272,0.056306449775152055
1273,0.05476595364413928
1274,0.05288789603289933
1275,0.050696175664529185
1276,0.04832196739800904
1277,0.04603481612687995
1278,0.044216756263278034
1279,0.043273862692295044
1280,0.043524278255126614
1281,0.04510666158024472
1282,0.04794852209773374
1283,0.0518095713336881
1284,0.05635976942810758
1285,0.06123657700403095
1286,0.0660652197140417
1287,0.07046694731616353
1288,0.07408775182901045
1289,0.07664638214465262
1290,0.07797680159662092
1291,0.07805037918997369
1292,0.0769725094015301
1293,0.07495523573751806
1294,0.07228180232519006
1295,0.06928870762097858
1296,0.06637951587124775
1297,0.0640435648769475
1298,0.06280823844083515
1299,0.06308231909066006
1300,0.06496110440074025
1301,0.06812742903072105
1302,0.07191507245509661
1303,0.07549274243471056
1304,0.07807342964576153
1305,0.07906797557674258
1306,0.0781574725030085
1307,0.07530509223519173
1308,0.07073166882535954
1309,0.06486303106373104
1310,0.05825091355052897
1311,0.05148161230467213
1312,0.04509414739566263
1313,0.039515186582368106
1314,0.0350152698704449
1315,0.03170219714752014
1316,0.02955678239354098
1317,0.028490170171506058
1318,0.028388483673602694
1319,0.02912554790756858
1320,0.030555283019468766
1321,0.032510394186586
1322,0.03481687480483594
1323,0.03730515418555004
1324,0.03979934092709787
1325,0.04209368058035058
1326,0.0439440322445097
1327,0.04509836404282574
1328,0.04536066067366919
1329,0.0446474086870056
1330,0.04300478966870354
1331,0.040595161275987765
1332,0.03767243970718732
1333,0.03454578008909576
1334,0.031517330638717186
1335,0.0288002365394806
1336,0.026465900043380505
1337,0.0244637610208395
1338,0.02269240123023863
1339,0.02107058147056672
1340,0.019581962432630103
1341,0.018288789703503443
1342,0.01731741204926052
1343,0.01683208901309846
1344,0.017020744027362537
1345,0.018091329952808228
1346,0.020257684359735594
1347,0.023714419082675724
1348,0.0286090521370983
1349,0.035007224830190274
1350,0.04286023555139969
1351,0.05200827547364193
1352,0.062233501673237934
1353,0.07330408372343981
1354,0.08492484323083092
1355,0.09661342765268338
1356,0.10762070345706155
1357,0.11698116875924948
1358,0.12368824528768402
1359,0.12691763720320004
1360,0.12619909769344914
1361,0.1214902684964909
1362,0.11316770182906463
1363,0.1019557368093508
1364,0.08880706873703549
1365,0.07476343775314208
1366,0.06083452239426839
1367,0.04791264190830837
1368,0.03671159395926942
1369,0.02771871868034492
1370,0.02116740813082474
1371,0.017043193331148128
1372,0.015127608008005007
1373,0.015063777141962656
1374,0.016419114532846397
1375,0.018737875456941794
1376,0.021581909848875116
1377,0.02454492561422528
1378,0.027242029362721038
1379,0.029305847611199833
1380,0.030410837047690778
1381,0.030312804917795345
1382,0.02887648049220542
1383,0.02608526787722851
1384,0.02204226989848081
1385,0.016961003315997366
1386,0.011146362410800578
1387,0.004971331976387366
1388,-0.0011579219573021053
1389,-0.006856592068825456
1390,-0.011829094336859256
1391,-0.015929634620116206
1392,-0.019179569667159065
1393,-0.021733106532114486
1394,-0.02383936978185909
1395,-0.025823063018733
1396,-0.028049945018196888
1397,-0.030880394763777616
1398,-0.0346454572654739
1399,-0.039623975277827725
1400,-0.04598260315779829
1401,-0.05370597473516932
1402,-0.06258070721082228
1403,-0.07225525189466231
1404,-0.08233410679458773
1405,-0.09245129891588448
1406,-0.10230394942130117
1407,-0.11165738222651461
1408,-0.12034221571937816
1409,-0.128260251416203
1410,-0.13539555255068847
1411,-0.14180551506301967
1412,-0.14758113533090558
1413,-0.15280232788834697
1414,-0.15751449949576665
1415,-0.16172036203486334
1416,-0.16536922600363976
1417,-0.1683332726293762
1418,-0.1703649857779179
1419,-0.1710512593502717
1420,-0.16983342539172264
1421,-0.16619056842057256
1422,-0.1599584129083476
1423,-0.15156352828390515
1424,-0.14199515210201702
1425,-0.1325693942789188
1426,-0.12464819828818638
1427,-0.11942147298389486
1428,-0.1177767383509122
1429,-0.12023028149280877
1430,-0.12689845995009133
1431,-0.13751017037561372
1432,-0.15145958326042563
1433,-0.1678894582602339
1434,-0.18579823517818986
1435,-0.2041599600449612
1436,-0.22202686026206492
1437,-0.2385854525361873
1438,-0.25317154936677144
1439,-0.26527603390052473
1440,-0.27456282933588744
1441,-0.28088650299248685
1442,-0.28427736214218824
1443,-0.2848848397952672
1444,-0.2829091452782344
1445,-0.27854737399776053
1446,-0.2719441197840357
1447,-0.26314021397715226
1448,-0.25206127753626006
1449,-0.2386150974047568
1450,-0.22289937584728137
1451,-0.20539267880994433
1452,-0.18698599237121516
1453,-0.16883839235678866
1454,-0.15214598992731232
1455,-0.13792760487721198
1456,-0.12689386030593952
1457,-0.11941638950018066
1458,-0.11556634956081607
1459,-0.11516953313737593
1460,-0.11785359760106885
1461,-0.1230965836039533
1462,-0.13027789716211016
1463,-0.13871915013820374
1464,-0.147711354597068
1465,-0.15654638621118358
1466,-0.16457290513785433
1467,-0.17125700600730162
1468,-0.17620901554162222
1469,-0.17917890995725222
1470,-0.18004988735571867
1471,-0.17883888692948532
1472,-0.1756893094675714
1473,-0.17084302129754195
1474,-0.16459599295028635
1475,-0.15725294624308708
1476,-0.14910011474859913
1477,-0.140405845858721
1478,-0.13143534131764165
1479,-0.12246639151751887
1480,-0.11380272629219011
1481,-0.10576620228736834
1482,-0.0986565748053352
1483,-0.09270384961672345
1484,-0.0880411151395414
1485,-0.08470336507173938
1486,-0.08264516213695071
1487,-0.08176383602691059
1488,-0.08191541462940967
1489,-0.0829214305275109
1490,-0.0845735102216594
1491,-0.08663758520377864
1492,-0.08885768113444063
1493,-0.09096594997471551
1494,-0.09270232785859987
1495,-0.0938400750207015
1496,-0.09421105308315791
1497,-0.09372209554965726
1498,-0.09235445612747692
1499,-0.09014844589128565
1500,-0.08718643992936578
1501,-0.08358118740287834
1502,-0.07946585656083197
1503,-0.07499416006675465
1504,-0.07036212329327668
1505,-0.06582606375244979
1506,-0.06167724366631033
1507,-0.058180816699232175
1508,-0.05552059787229781
1509,-0.0537727645759381
1510,-0.05290569730845838
1511,-0.05279497323768979
1512,-0.053246523558946574
1513,-0.05402785077873181
1514,-0.05490332370956655
1515,-0.05566481841390475
1516,-0.05615545404116979
1517,-0.05628286756505196
1518,-0.056012905702926684
1519,-0.055345852438828225
1520,-0.0542875220437508
1521,-0.052821618833783106
1522,-0.05089144631418623
1523,-0.0484077985526985
1524,-0.04528183490132073
1525,-0.04145788592696309
1526,-0.03693366808764143
1527,-0.031769618870850086
1528,-0.026079099324617546
1529,-0.020001567426261878
1530,-0.013685431703647962
1531,-0.0072925616522666326
1532,-0.0010028712299923563
1533,0.004998628462102507
1534,0.01053868927898379
1535,0.015460247983402193
1536,0.019627457597635834
1537,0.0229486090307343
1538,0.02540268177640099
1539,0.02704064874203512
1540,0.027954411219783988
1541,0.028237510085085054
1542,0.027972428350437447
1543,0.027250032797050735
1544,0.026186651568415924
1545,0.024910839814225563
1546,0.02353344301614765
1547,0.022130768717148506
1548,0.02075051241118913
1549,0.019427305584224373
1550,0.018191083329266975
1551,0.017069529082533882
1552,0.016102938018568453
1553,0.015371175396529393
1554,0.015004882096779474
1555,0.01516612204692171
1556,0.01600986179470695
1557,0.01764114350889196
1558,0.020082761205766332
1559,0.0232664435125965
1560,0.02704382240539666
1561,0.031206233139667448
1562,0.03551011714234238
1563,0.039703937867845415
1564,0.043551504079614986
1565,0.046851940910721576
1566,0.049455237071216726
1567,0.051270300612224914
1568,0.05226561542335144
1569,0.05246545015741816
1570,0.05194577605280778
1571,0.05083103380773655
1572,0.04928806550738074
1573,0.04751316537211041
1574,0.04570932778613259
1575,0.04405467106198501
1576,0.04267088376261669
1577,0.04160143608318986
1578,0.04080562097151088
1579,0.04017436918275101
1580,0.03956813465865251
1581,0.03886268186705395
1582,0.03798066777618833
1583,0.03689849615147246
1584,0.03563687454539747
1585,0.03424908422216026
1586,0.032811234377099735
1587,0.03140844771402519
1588,0.030116283082989036
1589,0.028986953996846043
1590,0.028048169768317158
1591,0.02731443385615999
1592,0.026799452747368398
1593,0.026517091886835334
1594,0.02647616827520766
1595,0.02668414278589574
1596,0.027165698334049655
1597,0.027985894007867225
1598,0.02925317864250428
1599,0.031087913618496825
1600,0.03357615487212863
1601,0.036743975849951635
1602,0.04056255957253661
1603,0.04496148837908655
1604,0.04982988047733661
1605,0.05501194199899595
1606,0.060314222665559754
1607,0.0655287789810883
1608,0.07046288450568515
1609,0.07496349530654055
1610,0.07893027662436615
1611,0.08231916857143824
1612,0.08513860064671805
1613,0.08743942108204315
1614,0.08930218615324227
1615,0.09081614699181469
1616,0.09203948500194721
1617,0.09294892179952623
1618,0.0934075945651321
1619,0.09318744284387784
1620,0.0920666772706024
1621,0.08996641830938489
1622,0.08703912031504113
1623,0.08365871386791533
1624,0.0803424141514996
1625,0.07765325340861974
1626,0.0761203393170225
1627,0.07620153801211509
1628,0.0782546630414853
1629,0.08245785133062004
1630,0.08871189765810722
1631,0.09661739145044428
1632,0.1055424509542594
1633,0.1147148395215965
1634,0.12329170826362362
1635,0.13042709902159005
1636,0.13537797251433878
1637,0.13763831154154804
1638,0.13702806031725487
1639,0.13368273226009103
1640,0.12797855287490925
1641,0.12045663893061735
1642,0.11176158696364863
1643,0.10258489709867205
1644,0.09359459881316136
1645,0.08532531979862337
1646,0.07805664917890179
1647,0.07175899475826748
1648,0.06615184573118185
1649,0.06085443762441702
1650,0.05555328755915084
1651,0.05009390242477092
1652,0.044478101522733
1653,0.038827140634929064
1654,0.03334139993696905
1655,0.028225370676943168
1656,0.023582937125660598
1657,0.019379011237428294
1658,0.0155409365563181
1659,0.012137076812827479
1660,0.009494004354359944
1661,0.008153452876488818
1662,0.008660206226498705
1663,0.011273737342298059
1664,0.015762793221944002
1665,0.021398205315970947
1666,0.027124871736419795
1667,0.031806196204267737
1668,0.034453217685054556
1669,0.034393746692258094
1670,0.03134731089712234
1671,0.025400267797392722
1672,0.01693953712477332
1673,0.006598624964152336
1674,-0.004792425697247862
1675,-0.016264491921186508
1676,-0.026798455324005734
1677,-0.035502509172207486
1678,-0.041833631261766875
1679,-0.045703911605500275
1680,-0.047402218945285214
1681,-0.04742513323321385
1682,-0.04633836157035255
1683,-0.04470910562492084
1684,-0.04307102706896201
1685,-0.04187362808185396
1686,-0.04142241144181087
1687,-0.041846740229217444
1688,-0.0431024015296255
1689,-0.04499575844398217
1690,-0.04722961862999708
1691,-0.049466863835965755
1692,-0.05138668456952612
1693,-0.05271361472417179
1694,-0.053225288992241396
1695,-0.052754401665084674
1696,-0.05119355163674994
1697,-0.04850115000847979
1698,-0.044697708178204565
1699,-0.03985282384658714
1700,-0.03408197639657917
1701,-0.027561657674070105
1702,-0.020550761475765605
1703,-0.013402517237335522
1704,-0.006549758855657691
1705,-0.0004543918082732849
1706,0.0044686295685263215
1707,0.007928280610475485
1708,0.009803083484253372
1709,0.010141197529833423
1710,0.009130448603161654
1711,0.0070541069006947845
1712,0.00424872708978504
1713,0.0010845271224406742
1714,-0.0020452990246885303
1715,-0.004758564861056995
1716,-0.006733433669126158
1717,-0.007737608044705975
1718,-0.00762575875960647
1719,-0.006324462535920333
1720,-0.0038233351551460485
1721,-0.0001756489752794096
1722,0.004493966881115812
1723,0.009988189033227193
1724,0.016070937041008915
1725,0.02254482908324085
1726,0.02932654871944948
1727,0.03647270044753548
1728,0.04417368235396319
1729,0.05275105274493671
1730,0.06265456007108673
1731,0.07444325090640244
1732,0.08873676401694333
1733,0.106131859685337
1734,0.12711449346053372
1735,0.15200198070891704
1736,0.18091879354403467
1737,0.2138012277689336
1738,0.2504268431405721
1739,0.2904422057769639
1740,0.33336219672941014
1741,0.37855803922122894
1742,0.42525869078747625
1743,0.47256313887302626
1744,0.5194680144326057
1745,0.564903567231147
1746,0.6077514220261702
1747,0.6468617201566754
1748,0.6810995757698345
1749,0.709392589012791
1750,0.7307400057303002
1751,0.7441858947382004
1752,0.7487863662956171
1753,0.7436184535949139
1754,0.7278697963006028
1755,0.7009891770383998
1756,0.662840153196625
1757,0.6138176564531072
1758,0.55488146611466
1759,0.4874496661004327
1760,0.4131781165725475
1761,0.3337424512076495
1762,0.2507022283359574
1763,0.1654458045351191
1764,0.07920161373747592
1765,-0.006888099903952351
1766,-0.09166584333823626
1767,-0.1738971678407389
1768,-0.25229914549914717
1769,-0.32566323368478406
1770,-0.39299781932009803
1771,-0.4535606316776555
1772,-0.5067585604180355
1773,-0.5520457096476407
1774,-0.5889221178111854
1775,-0.6170122664136742
1776,-0.6361643145219412
1777,-0.6465282995876709
1778,-0.6485668597068979
1779,-0.6429667016360885
1780,-0.6304946348010813
1781,-0.6118981660835209
1782,-0.5879064387865669
1783,-0.5592879848428424
1784,-0.5268820737572125
1785,-0.49157621479862257
1786,-0.4542584253562405
1787,-0.41576816241219144
1788,-0.3768508256529234
1789,-0.33812195928095423
1790,-0.3000607216458642
1791,-0.2630464263884149
1792,-0.2274113798944993
1793,-0.19346782611531352
1794,-0.161510467987997
1795,-0.1318187558816635
1796,-0.1046521081238805
1797,-0.0802223666432206
1798,-0.058656327986703845
1799,-0.039977204676791445
1800,-0.024122301353177087
1801,-0.01097904091661243
1802,-0.00039635414674971093
1803,0.007842568131220392
1804,0.014051682147007409
1805,0.01863230283872494
1806,0.021998666293031547
1807,0.024443924980938888
1808,0.025987842389730426
1809,0.0262942251814961
1810,0.024742034730016408
1811,0.02063931410614718
1812,0.013462797591816244
1813,0.002997076106334722
1814,-0.010641978747810747
1815,-0.027017412479640776
1816,-0.045369617123340554
1817,-0.06462760382238783
1818,-0.08345759666821939
1819,-0.10036205789654944
1820,-0.11383637130766329
1821,-0.12255660093473067
1822,-0.12554774679296024
1823,-0.122290946142407
1824,-0.11275077718934631
1825,-0.09733171275304182
1826,-0.07679476064422389
1827,-0.05216706668904919
1828,-0.02466116031960152
1829,0.004397442595748915
1830,0.03364477049262165
1831,0.06176038658907863
1832,0.08754238154654895
1833,0.1099485064610268
1834,0.1280988041824184
1835,0.14128066675889894
1836,0.14899924559926686
1837,0.15105077626937216
1838,0.14755077350551232
1839,0.13889804855506788
1840,0.1257471046677583
1841,0.10903272317284644
1842,0.08995460882888133
1843,0.06984394263116518
1844,0.049986860110597366
1845,0.031515505684936065
1846,0.015378777368450187
1847,0.0023281342669866953
1848,-0.007124113627556644
1849,-0.012741827284681286
1850,-0.014534826340853374
1851,-0.012655349191576385
1852,-0.0073025439555983625
1853,0.0012869048405393484
1854,0.012787655736080162
1855,0.026749993852536645
1856,0.04260395258239834
1857,0.05968501338815356
1858,0.0772694119362338
1859,0.09461886408539835
1860,0.11103518613038073
1861,0.12592102666822155
1862,0.13883013314196577
1863,0.14948075148191253
1864,0.15772839884985612
1865,0.16353340307452802
1866,0.1669578511410059
1867,0.1681856433736323
1868,0.16753972082852944
1869,0.16548756115767677
1870,0.16263495224498586
1871,0.15969049922761808
1872,0.1573662890526297
1873,0.15619665034070826
1874,0.1563405911026777
1875,0.1575144701744446
1876,0.1591196457741961
1877,0.16046261556517263
1878,0.16093639559201176
1879,0.16012158039227498
1880,0.15783549056487636
1881,0.15417260058126087
1882,0.14954373526973114
1883,0.14466639117415164
1884,0.1404542920300687
1885,0.1378019748272702
1886,0.1373086733052203
1887,0.1390544001009772
1888,0.1425678465297026
1889,0.14699481254820213
1890,0.15133836000316528
1891,0.15466052828703036
1892,0.15620686350169274
1893,0.15545387798100904
1894,0.1521130534863635
1895,0.1461450258727803
1896,0.1378057697207676
1897,0.12768899330990122
1898,0.11669370089229592
1899,0.10585969353052939
1900,0.09611211578016941
1901,0.08806277783015891
1902,0.0819784788906151
1903,0.07787160005029467
1904,0.07558601855878035
1905,0.07482629319962891
1906,0.07517980191911752
1907,0.0761779775755483
1908,0.07737832176285958
1909,0.07842009830304494
1910,0.07903622873248965
1911,0.07904606438076976
1912,0.07835071552378516
1913,0.07692281727535331
1914,0.07478837581379971
1915,0.07202090523602821
1916,0.0687443763518303
1917,0.0651257947941241
1918,0.06138326452133256
1919,0.0578286452824575
1920,0.054886930144659694
1921,0.05303383367716608
1922,0.05267571769819614
1923,0.05404120191522961
1924,0.057131704099409965
1925,0.06174410770289767
1926,0.06754631806556834
1927,0.0741455009113523
1928,0.08109953266783902
1929,0.08789884015245696
1930,0.09398280867675284
1931,0.09881700502692212
1932,0.10201001458925352
1933,0.10341833356075197
1934,0.10318436779753325
1935,0.10169824527527996
1936,0.0995219786223269
1937,0.09730298005065646
1938,0.09568130841648864
1939,0.09520559299969202
1940,0.09627701055126762
1941,0.0991217265054656
1942,0.1037651712613494
1943,0.10998762001970408
1944,0.11728264097550088
1945,0.12484612559398832
1946,0.13160672116079236
1947,0.13631228312342877
1948,0.1376630517380602
1949,0.134442782383071
1950,0.12563012786124297
1951,0.11055194627960056
1952,0.0891307779076449
1953,0.06214420744940259
1954,0.031337288772269385
1955,-0.0006800028583093032
1956,-0.03072898807442268
1957,-0.05552105148400238
1958,-0.07217676195571278
1959,-0.07862868177515878
1960,-0.07382492157318227
1961,-0.05778362272633784
1962,-0.03154664689803178
1963,0.002973911051308327
1964,0.043268567160458134
1965,0.08658440637165961
1966,0.13025010979504278
1967,0.17186969570221805
1968,0.20938972554927116
1969,0.24112829654698803
1970,0.26583134199917524
1971,0.2827381576733854
1972,0.29160270348775624
1973,0.2926541184252263
1974,0.2865150419021792
1975,0.2741118931427112
1976,0.2566073266813484
1977,0.23533324765063737
1978,0.21167641471028426
1979,0.1869402025712591
1980,0.16227137403691352
1981,0.13869195161809747
1982,0.11717250087454187
1983,0.09863155631626239
1984,0.08378709437316485
1985,0.07292953579140722
1986,0.06583151737368768
1987,0.06191850298136891
1988,0.06053425555565517
1989,0.06105422924976205
1990,0.06283582442049755
1991,0.06517443415757922
1992,0.06734120480166647
1993,0.06862917021585827
1994,0.06836033035257082
1995,0.06590285314111506
1996,0.06074251892099206
1997,0.05258710327986567
1998,0.04144186477070272
1999,0.02761220759875358
2000,0.011651718304089325
2001,-0.005700891559385124
2002,-0.023585861758105793
2003,-0.0411052951873976
2004,-0.05743041544394942
2005,-0.07190231029514323
2006,-0.0840867253415563
2007,-0.09379127952689237
2008,-0.10107615328008777
2009,-0.10624153871922407
2010,-0.10975582359307985
2011,-0.11214016705120473
2012,-0.11387241471051028
2013,-0.1153549853707847
2014,-0.1169189985360987
2015,-0.11880977272702635
2016,-0.12116626796142488
2017,-0.12405451267469282
2018,-0.1275585115407863
2019,-0.13185263997868824
2020,-0.13718345676558186
2021,-0.14376720682871885
2022,-0.15166725976035628
2023,-0.16070806509186336
2024,-0.17044586977565393
2025,-0.18019468480772552
2026,-0.1891040212772622
2027,-0.19627812537801378
2028,-0.20091210488845127
2029,-0.2024154791952284
2030,-0.20049939999867183
2031,-0.19522572713894937
2032,-0.1870343725368836
2033,-0.1767438100333782
2034,-0.165493991303364
2035,-0.1546156586745994
2036,-0.1454454735061647
2037,-0.13913951531808627
2038,-0.13653943417499206
2039,-0.13809108113756582
2040,-0.14379099038465662
2041,-0.15320102662856844
2042,-0.1655798396939978
2043,-0.18006552678380158
2044,-0.19579729567361556
2045,-0.21196237309852112
2046,-0.22782397615307326
2047,-0.2427509381314738
2048,-0.2562291841726266
2049,-0.2678338396142551
2050,-0.2771677553786463
2051,-0.2838081221443638
2052,-0.2873002236030735
2053,-0.2872061408893057
2054,-0.28319715867061046
2055,-0.2751600883702859
2056,-0.26327286778115516
2057,-0.24802192161075182
2058,-0.23016044168224276
2059,-0.21061739823779269
2060,-0.19037492724807598
2061,-0.1703432626845573
2062,-0.1512641859900372
2063,-0.13365362738591124
2064,-0.11778052445407905
2065,-0.10369349906582165
2066,-0.09130425746007115
2067,-0.08049681880125271
2068,-0.07120196833905813
2069,-0.063409097261417
2070,-0.05715591275000513
2071,-0.052542960434887175
2072,-0.04975799252648121
2073,-0.04906213088972932
2074,-0.05072857639877571
2075,-0.05496968782105642
2076,-0.06188160929232177
2077,-0.07140413840728237
2078,-0.0832812303876717
2079,-0.09703147302808952
2080,-0.11195039037069145
2081,-0.12713517938886856
2082,-0.14152014562062867
2083,-0.15394342767520164
2084,-0.16325492217517626
2085,-0.16843717557965035
2086,-0.1687082250266202
2087,-0.16360257935549283
2088,-0.15303547016495983
2089,-0.1373330559943673
2090,-0.11720079280142678
2091,-0.09363215941475826
2092,-0.06779355118104818
2093,-0.040919752519120424
2094,-0.014231897948247274
2095,0.011125507015462638
2096,0.034132609202175285
2097,0.0539247519512145
2098,0.06980695992630266
2099,0.08126627826625542
2100,0.08799121921506577
2101,0.08989075852428297
2102,0.0871006492287835
2103,0.07997007657969786
2104,0.06903110768481767
2105,0.05496415516875968
2106,0.03856484129092365
2107,0.0207087571673908
2108,0.002325585850902595
2109,-0.015614281371369913
2110,-0.03213180471824412
2111,-0.046312547284087804
2112,-0.057401272249282424
2113,-0.06488095568464985
2114,-0.06851321624506085
2115,-0.06833836075529488
2116,-0.0646487344577954
2117,-0.05794832433071993
2118,-0.048898049362692
2119,-0.038250511122872685
2120,-0.02679094689673079
2121,-0.015290155417102843
2122,-0.004461774857090422
2123,0.005083454015182844
2124,0.012886770589368445
2125,0.01868404562404702
2126,0.02243094228818917
2127,0.024299291932747966
2128,0.02463105420271061
2129,0.023851564125848254
2130,0.022375954372346993
2131,0.020556115167888408
2132,0.018678024989627444
2133,0.016968248456349835
2134,0.015578086677252545
2135,0.014563503552649019
2136,0.013887600421277532
2137,0.013449958897562042
2138,0.013135556763072436
2139,0.012865131498813891
2140,0.012623548068709311
2141,0.012456092621952044
2142,0.012441128274850633
2143,0.012656740712857781
2144,0.013155923837680508
2145,0.013954877382327513
2146,0.015029735751103107
2147,0.01631727447870056
2148,0.01772500251575832
2149,0.019157065725680003
2150,0.0205461258658331
2151,0.02186890837796601
2152,0.023134004289012907
2153,0.024355004886776943
2154,0.02552986726826889
2155,0.02663509349595756
2156,0.0276316874167921
2157,0.028473881677629542
2158,0.02911890984705582
2159,0.029544695755449827
2160,0.029767641785739422
2161,0.029843012217031704
2162,0.029850342494109477
2163,0.029881425764681658
2164,0.030032274628860937
2165,0.030382523123845213
2166,0.030961671777980225
2167,0.03172888461007933
2168,0.032586799887725754
2169,0.03342013855667949
2170,0.034134922539069135
2171,0.03468036088544875
2172,0.035051410132745625
2173,0.03527965296507596
2174,0.03541315904922044
2175,0.035485178914014086
2176,0.03548996111984615
2177,0.035385762467624655
2178,0.03511939350982088
2179,0.03465182051572055
2180,0.03397068382534369
2181,0.03308686341579826
2182,0.032025617413790876
2183,0.030826439564262086
2184,0.02955107910747925
2185,0.02828671521505211
2186,0.027133410820369526
2187,0.026177317105769777
2188,0.025466513160427997
2189,0.025005863817853993
2190,0.024770354237326434
2191,0.024726547858674907
2192,0.024850951780420148
2193,0.025139343894291774
2194,0.025613638279404622
2195,0.02632826588563127
2196,0.02735999187199948
2197,0.0287753423373049
2198,0.030601802986992194
2199,0.03282910572948393
2200,0.035430161109585086
2201,0.03837545824025511
2202,0.041633961259637406
2203,0.04516695989318374
2204,0.048920973550204125
2205,0.05282429062131465
2206,0.05678660732723024
2207,0.06069701619804796
2208,0.06442231809443326
2209,0.06781393014021352
2210,0.07072839483677489
2211,0.07306159648082643
2212,0.07478503152289145
2213,0.07596014730692191
2214,0.07671761015066746
2215,0.0772122791771106
2216,0.07757538647756354
2217,0.0778830645339448
2218,0.07815093749276228
2219,0.07835032716571548
2220,0.07843524968169048
2221,0.07837131136727758
2222,0.07815718302007361
2223,0.07782954485169401
2224,0.07745038348904441
2225,0.07708703061095622
2226,0.07679704717870915
2227,0.07661941243237315
2228,0.07656603268459916
2229,0.07661276453667701
2230,0.0766935421459137
2231,0.07669779248106545
2232,0.07647404858334432
2233,0.07584554939011114
2234,0.07463469886400365
2235,0.07268822062500113
2236,0.06989891546894095
2237,0.06622112438848576
2238,0.06167559796800079
2239,0.05634116303899745
2240,0.05033682575872938
2241,0.043804082239970836
2242,0.0368969684792304
2243,0.029779325718844563
2244,0.022624951038569364
2245,0.015616388928660027
2246,0.008936246487955954
2247,0.002748110937844553
2248,-0.0028247179063850742
2249,-0.007711236453051346
2250,-0.011893932554822382
2251,-0.015406357994270684
2252,-0.01832972016298811
2253,-0.02078227476964724
2254,-0.022899473864187204
2255,-0.02481226329076607
2256,-0.026630816986068458
2257,-0.0284351948650469
2258,-0.030271012297336003
2259,-0.03214965749486535
2260,-0.03405482706767661
2261,-0.035955310731900954
2262,-0.0378202355523394
2263,-0.03963095143296954
2264,-0.0413830510755669
2265,-0.0430743832100153
2266,-0.04468125835226268
2267,-0.04613253616934934
2268,-0.0472960017768531
2269,-0.04798899841124861
2270,-0.048017517609210074
2271,-0.04723420560446444
2272,-0.045591038850235376
2273,-0.0431622753790817
2274,-0.04012817704992018
2275,-0.03673150747631937
2276,-0.033230228762199825
2277,-0.029859378383691317
2278,-0.026801531937510274
2279,-0.02416528502802068
2280,-0.02197983786812241
2281,-0.020215171858103766
2282,-0.018821076715053207
2283,-0.017761945424828462
2284,-0.017029262363137263
2285,-0.016633294479281045
2286,-0.016588655652117767
2287,-0.016903163333239265
2288,-0.017570661991439723
2289,-0.018570914374402576
2290,-0.01987722065626246
2291,-0.02146313951328865
2292,-0.023301192083042117
2293,-0.02535408572448921
2294,-0.027562632318660855
2295,-0.029838529922422124
2296,-0.0320720141972714
2297,-0.03415324831356639
2298,-0.03599100749905859
2299,-0.03751579838972963
2300,-0.03867454690446409
2301,-0.03943006822490441
2302,-0.039765354703037714
2303,-0.039685691103708
2304,-0.039214108521433436
2305,-0.038379363857369515
2306,-0.03720610228505981
2307,-0.03572194635414001
2308,-0.033978912824887436
2309,-0.03206819981782555
2310,-0.030113214927784192
2311,-0.02824688927690861
2312,-0.02659462142437171
2313,-0.02527726138020685
2314,-0.024424905193935267
2315,-0.0241798840411465
2316,-0.02467856905843692
2317,-0.026019831449551424
2318,-0.028231728656278446
2319,-0.031242806484365247
2320,-0.03486588125301722
2321,-0.03879947888956063
2322,-0.04264128877720475
2323,-0.04590687721985139
2324,-0.04805272068167205
2325,-0.048503039206075356
2326,-0.04667899492875874
2327,-0.04202788194729258
2328,-0.03404969302106
2329,-0.02231970955601829
2330,-0.0065061384970577785
2331,0.013612129281329525
2332,0.038118650447093394
2333,0.06692837363052148
2334,0.09977126364228134
2335,0.13620347445156106
2336,0.17564653879795275
2337,0.2174445492634017
2338,0.26091895623787653
2339,0.30540158869135153
2340,0.35023948777980646
2341,0.39477870881034194
2342,0.4383404219159822
2343,0.4801981067869511
2344,0.519557987572709
2345,0.5555441252263245
2346,0.5871935327401769
2347,0.6134723295289571
2348,0.6333195891489541
2349,0.645704006147585
2350,0.6496647666188105
2351,0.6443262126743731
2352,0.628898810897774
2353,0.602679754504527
2354,0.5650712170377117
2355,0.5156484776596574
2356,0.4542893693076621
2357,0.3813199544021873
2358,0.2976068263464395
2359,0.2045651744649696
2360,0.10410115740149847
2361,-0.001482618458526878
2362,-0.10960561598496915
2363,-0.21754707534884996
2364,-0.3225928576091136
2365,-0.4221773154604122
2366,-0.5140092638669397
2367,-0.5961774591167197
2368,-0.6672310899225968
2369,-0.7262237076700158
2370,-0.7727114176752737
2371,-0.806710198574474
2372,-0.8286266284089737
2373,-0.8391780573976114
2374,-0.8393169179472582
2375,-0.8301640087062594
2376,-0.8129415152576526
2377,-0.7888989008123013
2378,-0.7592438228117564
2379,-0.7250985015789618
2380,-0.6874848876300419
2381,-0.6473221117532191
2382,-0.6054216026362039
2383,-0.5624827490375931
2384,-0.5191022396194845
2385,-0.47579793112997293
2386,-0.4330318770473236
2387,-0.39122106930876904
2388,-0.3507381557968423
2389,-0.3119104775697352
2390,-0.27502012378795937
2391,-0.2403007601950807
2392,-0.2079307261590431
2393,-0.17802814054208063
2394,-0.15065359983466955
2395,-0.1258218887641064
2396,-0.10351480893335833
2397,-0.08368188673345552
2398,-0.06623102467545756
2399,-0.05102632847013327
2400,-0.03789666612971107
2401,-0.02664492038807268
2402,-0.017058574431971292
2403,-0.008926147198492204
2404,-0.002053383607041201
2405,0.0037269978252961926
2406,0.008550564896754213
2407,0.012520713576484401
2408,0.01571571021123452
2409,0.01820065536596605
2410,0.02003588778563344
2411,0.02128076486472163
2412,0.02199947886209635
2413,0.022270382200579163
2414,0.022190083628853843
2415,0.021865767627359
2416,0.021403390218371097
2417,0.02090126519699104
2418,0.02044882538433749
2419,0.020130794609142036
2420,0.020033973675463185
2421,0.020239759512159925
2422,0.02079685937264689
2423,0.02169853253115111
2424,0.022885399644619935
2425,0.024269467464155803
2426,0.02576378154533528
2427,0.02730130131610491
2428,0.028837441581839575
2429,0.03034683513129098
2430,0.03181913909957171
2431,0.03324328808417693
2432,0.034580325317025776
2433,0.035747310569442005
2434,0.036628681357260884
2435,0.03710772080996445
2436,0.03710085412817385
2437,0.036580733195257606
2438,0.035580037821369606
2439,0.03417577205127188
2440,0.0324646893223296
2441,0.030542389315441322
2442,0.028490122267095897
2443,0.02637122698921478
2444,0.02423698945753566
2445,0.022135736860265584
2446,0.020121751151886618
2447,0.01826351872929169
2448,0.016644228289445416
2449,0.015345199960235192
2450,0.01441999933455862
2451,0.013884350698218537
2452,0.013734636471038906
2453,0.013977167673073743
2454,0.014638126048748193
2455,0.01574703197765926
2456,0.017316239499273304
2457,0.019333474843683772
2458,0.021762429055686476
2459,0.024548226631749732
2460,0.027630449440685607
2461,0.030954993467229044
2462,0.034472858452726726
2463,0.03812717104712373
2464,0.04183936820451358
2465,0.0455064421973612
2466,0.0490165990700975
2467,0.05227851653997855
2468,0.05524506560000794
2469,0.05791075784478343
2470,0.06028294599132358
2471,0.06235073633082289
2472,0.06407251817382115
2473,0.06538312519185091
2474,0.06621004989998305
2475,0.06648841165631596
2476,0.06617417232348605
2477,0.06525874674725196
2478,0.06377774897871324
2479,0.0618059355501459
2480,0.05944489159174661
2481,0.05681379528087144
2482,0.05404124178022356
2483,0.05125199267877904
2484,0.04855473902870235
2485,0.04604197584666028
2486,0.04379842447374541
2487,0.041903449883818306
2488,0.040424778461604034
2489,0.03941789502198429
2490,0.038939916173479895
2491,0.03906267043994309
2492,0.03986494361755958
2493,0.04140580156252595
2494,0.04369524668981983
2495,0.04667560632544892
2496,0.05022085908416446
2497,0.054155338766262634
2498,0.05828484538906173
2499,0.06242372666925545
2500,0.06640455206203498
2501,0.07007477631469282
2502,0.07329585494178531
2503,0.07595507828516421
2504,0.07798866513579235
2505,0.07940529304019411
2506,0.08029580910739292
2507,0.08081800721642707
2508,0.08116006058883568
2509,0.08150378812509082
2510,0.08200497267736793
2511,0.0827881743055399
2512,0.08394468236779855
2513,0.08552585235663825
2514,0.0875302752343855
2515,0.08989457647187739
2516,0.09250466362704295
2517,0.09523006755628574
2518,0.09796322079619763
2519,0.10064211013371904
2520,0.10324870625158133
2521,0.10579331551239132
2522,0.10830324783322046
2523,0.11082453176541611
2524,0.11342288234057603
2525,0.11616649727294584
2526,0.11909948876368211
2527,0.12222650710586005
2528,0.12551362191153084
2529,0.12890127751961855
2530,0.132321562532695
2531,0.13570700115474088
2532,0.13899130231446513
2533,0.14211980654392112
2534,0.14506950570759292
2535,0.14785453983930105
2536,0.15051100868393738
2537,0.1530714150196526
2538,0.15552503579874688
2539,0.1577711381471936
2540,0.15960093264241199
2541,0.16072988249978837
2542,0.1608623311946752
2543,0.15975734851687604
2544,0.15728050527452378
2545,0.15344205788472073
2546,0.1484150705902174
2547,0.14251710117822092
2548,0.13615521452451426
2549,0.12975498063073954
2550,0.12369556148189785
2551,0.11826756297908332
2552,0.11366514492228735
2553,0.11000582568329896
2554,0.10734828082325809
2555,0.10568851280420395
2556,0.10495261963362693
2557,0.1050062997700311
2558,0.1056691693556049
2559,0.10672366353877329
2560,0.10792919550616481
2561,0.10903839874020146
2562,0.10979873782215037
2563,0.10994767778943772
2564,0.10922367415037985
2565,0.10739283397068436
2566,0.10427789086575892
2567,0.09978584632325772
2568,0.09393309185424409
2569,0.08685392663689066
2570,0.07878022862639104
2571,0.07000510229475414
2572,0.06085205685018104
2573,0.051654773991037795
2574,0.04273682216827149
2575,0.034381227327306696
2576,0.026797782584686385
2577,0.020103375031676685
2578,0.014317658012615019
2579,0.009374027163859476
2580,0.005144177493132035
2581,0.0014580735596915126
2582,-0.0018904254595360599
2583,-0.005137963444860599
2584,-0.008539711989736899
2585,-0.012357564889974979
2586,-0.01684399283405547
2587,-0.022213626625087145
2588,-0.028607207652908424
2589,-0.03605978844039187
2590,-0.04448611550597614
2591,-0.05369031555655768
2592,-0.06339356142203688
2593,-0.07326721547521857
2594,-0.08296493551364646
2595,-0.09215120970271665
2596,-0.10052265037974448
2597,-0.10782356097354776
2598,-0.11386091392830049
2599,-0.11851527495756692
2600,-0.12173977652294439
2601,-0.1235568229386133
2602,-0.12407571252597535
2603,-0.12352265212492589
2604,-0.1222409418466019
2605,-0.1206488053263488
2606,-0.11918497758493658
2607,-0.11826296896770074
2608,-0.11823322465593332
2609,-0.11935440604311152
2610,-0.12177675638852453
2611,-0.12553559706512551
2612,-0.13055250687650552
2613,-0.13664264005545917
2614,-0.14352919058807279
2615,-0.15086952329445483
2616,-0.15829418814849947
2617,-0.16545049607317464
2618,-0.17203879526340649
2619,-0.1778346373076754
2620,-0.18269291838649995
2621,-0.18653570108552656
2622,-0.18933627901375308
2623,-0.1911089049463164
2624,-0.19189923077953558
2625,-0.1917703796119141
2626,-0.19079370522162512
2627,-0.1890577458869857
2628,-0.18669287761840742
2629,-0.18389145039378393
2630,-0.1809045611969551
2631,-0.1780114153829435
2632,-0.1754714893701975
2633,-0.17347682646516865
2634,-0.17212063068185013
2635,-0.17138994627999068
2636,-0.17118000007728154
2637,-0.17132421454475547
2638,-0.17163185797269015
2639,-0.1719240271520315
2640,-0.1720613026452244
2641,-0.17195530062224218
2642,-0.17156085844075042
2643,-0.17085767124987553
2644,-0.16983303016580467
2645,-0.16847305965359183
2646,-0.16676022823227304
2647,-0.16466901248625823
2648,-0.16216459193810684
2649,-0.1592129012684843
2650,-0.15579271234569747
2651,-0.1518960253196122
2652,-0.14752556332298492
2653,-0.1427215579405531
2654,-0.1376203916370067
2655,-0.13248673587451548
2656,-0.12767227014454138
2657,-0.12352672348344128
2658,-0.12031358809118518
2659,-0.11815715777219574
2660,-0.11702965477195505
2661,-0.11677454909269462
2662,-0.11714584247527625
2663,-0.11784969374444898
2664,-0.11858866362715748
2665,-0.11910152272821599
2666,-0.11918618112381944
2667,-0.11870545406153424
2668,-0.11758272530553746
2669,-0.11579205372873419
2670,-0.11334600348836725
2671,-0.11028447465887962
2672,-0.1066683740801964
2673,-0.1025800636363497
2674,-0.09812901866336986
2675,-0.09345833818669146
2676,-0.08874430624304298
2677,-0.08418839024052083
2678,-0.08000871601862554
2679,-0.0764236752682206
2680,-0.0736130989943243
2681,-0.07166707727759306
2682,-0.07055313741839726
2683,-0.0701226142358227
2684,-0.0701504255184764
2685,-0.0703811922642084
2686,-0.07056090600721247
2687,-0.07045830965829962
2688,-0.06988717442123361
2689,-0.06872982858948994
2690,-0.06695290164048646
2691,-0.06460279356767797
2692,-0.06177916402965298
2693,-0.0586005070244677
2694,-0.0551798668544125
2695,-0.051621916780068625
2696,-0.04803305422855247
2697,-0.04452265645510027
2698,-0.041189400116187685
2699,-0.03810838238349108
2700,-0.03533422296486751
2701,-0.03291552750405872
2702,-0.030901453017230494
2703,-0.02932870369172699
2704,-0.028196796897461303
2705,-0.027450952418152385
2706,-0.026984815139046936
2707,-0.026662038096690245
2708,-0.02634535753166432
2709,-0.025918713900845828
2710,-0.025306983981659693
2711,-0.02450409205073239
2712,-0.02358887396432773
2713,-0.022697975835969456
2714,-0.02196486833134773
2715,-0.0214710392899391
2716,-0.021241870257638497
2717,-0.021272991375791073
2718,-0.021550664334809583
2719,-0.022051590563164712
2720,-0.022734899095866023
2721,-0.023542037311826424
2722,-0.024400946053680043
2723,-0.02521504545423524
2724,-0.025842212376886886
2725,-0.02609779031417807
2726,-0.025792956850554313
2727,-0.024783713036223794
2728,-0.0230012866922397
2729,-0.020456950983064884
2730,-0.017237772126935714
2731,-0.01350512677538474
2732,-0.009485706657010356
2733,-0.005442048194453216
2734,-0.0016312071974745026
2735,0.0017262412746639093
2736,0.004462989102337299
2737,0.006482309079903527
2738,0.007775145254436187
2739,0.008422568448625139
2740,0.008582938400066357
2741,0.008468790056209843
2742,0.008313376305256508
2743,0.008332735578179915
2744,0.008692166088223504
2745,0.009483207030547825
2746,0.010715717032846002
2747,0.012324226506312527
2748,0.014193333004693599
2749,0.016207015645887134
2750,0.018288420429489954
2751,0.02038975858687184
2752,0.02245644377527643
2753,0.024415505218866228
2754,0.026188772058857765
2755,0.027702636361249713
2756,0.028888087237639328
2757,0.0296819004182178
2758,0.03002932724439533
2759,0.02988097993532274
2760,0.029195853153958038
2761,0.02796854040777904
2762,0.02625811625082812
2763,0.024180091962267718
2764,0.021867091149985494
2765,0.019436881049218487
2766,0.016992402665736626
2767,0.01464115166098656
2768,0.012504548409610966
2769,0.010708219794848829
2770,0.009364224691752202
2771,0.008557259181791926
2772,0.008336404230193212
2773,0.008704579694403995
2774,0.009607492089148918
2775,0.010936363714675004
2776,0.012549008060362313
2777,0.014295235060597603
2778,0.01602979287649449
2779,0.017613171945862725
2780,0.01891544829129573
2781,0.019831034822364906
2782,0.02029566463342284
2783,0.020296076058363657
2784,0.019871630761096735
2785,0.019108405908474024
2786,0.018126618628251105
2787,0.01706147970279618
2788,0.01603791200695346
2789,0.015150686170355596
2790,0.014463036554317783
2791,0.014021932998550396
2792,0.013880685145832869
2793,0.014116186232169772
2794,0.014824656062375829
2795,0.016093644819989865
2796,0.017970709628882864
2797,0.020452134433128433
2798,0.023493307927076858
2799,0.02702709578617502
2800,0.030981508224098835
2801,0.035289707063157386
2802,0.03988593678546476
2803,0.044690751394458356
2804,0.049595924100795136
2805,0.05446217913597239
2806,0.059137500810160615
2807,0.06348234050058124
2808,0.06737648666390536
2809,0.07070345104893411
2810,0.07333533556876304
2811,0.07514079165168276
2812,0.07601516548587031
2813,0.07591395785596577
2814,0.07487306175300319
2815,0.073011303505483
2816,0.0705171933615621
2817,0.06761609972053528
2818,0.06451328780690703
2819,0.0613329053186465
2820,0.05809764331131878
2821,0.054770569633724384
2822,0.05132264766342013
2823,0.047771669002487784
2824,0.04418045318488093
2825,0.04063928741187278
2826,0.03725134508913156
2827,0.03411696455122503
2828,0.031308578116285304
2829,0.02884537473638593
2830,0.026684085269849608
2831,0.024727470757804085
2832,0.022843121161495235
2833,0.02088888591882769
2834,0.01874038636272639
2835,0.016312525454998908
2836,0.013567849843918917
2837,0.01051004412461306
2838,0.007169973076643994
2839,0.003595646934147755
2840,-0.00014777761802657906
2841,-0.00396829875146593
2842,-0.007734698203772607
2843,-0.011272662200332363
2844,-0.014375791067435622
2845,-0.016831495886413222
2846,-0.018462567176262618
2847,-0.01918391972622121
2848,-0.01905131551216762
2849,-0.0182586031555176
2850,-0.017071862053244555
2851,-0.015742842405262802
2852,-0.01444761136442528
2853,-0.013263464294854548
2854,-0.012182310326831194
2855,-0.011152258827484723
2856,-0.0101278327479956
2857,-0.009109828871636094
2858,-0.008160550013185915
2859,-0.00738626863815099
2860,-0.006896382496805535
2861,-0.006762447412356707
2862,-0.00699453508662732
2863,-0.00753778140263025
2864,-0.008286507267792165
2865,-0.009112843316210754
2866,-0.009898823326517148
2867,-0.010556593035701431
2868,-0.011032842569898416
2869,-0.011304620195147752
2870,-0.011369461049554825
2871,-0.011229304264716375
2872,-0.010873331494031118
2873,-0.010267677716150054
2874,-0.009365784529620363
2875,-0.008146990909994652
2876,-0.00665400413256531
2877,-0.004989821041532314
2878,-0.003279164041195027
2879,-0.0016276915213559093
2880,-9.78256152450459e-05
2881,0.001294638137868071
2882,0.0025672708595531994
2883,0.0037540795918514533
2884,0.004888515010529078
2885,0.005981091927213711
2886,0.007006683591850006
2887,0.00792277416342603
2888,0.008707514318205377
2889,0.00938786392259366
2890,0.010042805692434601
2891,0.010783748294393594
2892,0.011722023345128429
2893,0.012940586321064585
2894,0.01448269672706003
2895,0.016347916871046003
2896,0.018486516481150145
2897,0.020807115972494516
2898,0.02320539483210799
2899,0.025595770039237988
2900,0.027921939531015964
2901,0.03013736367218477
2902,0.03217168329092986
2903,0.033910293409880575
2904,0.035203688252922874
2905,0.035903187532922924
2906,0.03590476837240264
2907,0.03518949525553002
2908,0.03385981078153729
2909,0.032163868947976286
2910,0.030492636459514447
2911,0.029343763252195263
2912,0.029266251048002987
2913,0.030803974988028966
2914,0.034443044514800035
2915,0.04057434831803392
2916,0.04949427915323316
2917,0.06144381244729797
2918,0.07665713213519589
2919,0.09538673091182004
2920,0.11787239032241674
2921,0.1442412752228431
2922,0.1743899057188687
2923,0.20792915146864416
2924,0.24421366957076462
2925,0.2824288237180949
2926,0.3217202204600772
2927,0.36133327651774827
2928,0.4006941785067101
2929,0.43939328708005737
2930,0.47710086033819255
2931,0.5134736224492484
2932,0.5480835509701465
2933,0.5803704826588505
2934,0.6096192363464442
2935,0.6349664178325971
2936,0.6554351544642162
2937,0.6699887059917441
2938,0.6775937712097867
2939,0.6772820176766441
2940,0.6681930222561825
2941,0.6495904981986393
2942,0.6208654200439085
2943,0.581542752839853
2944,0.5313024896099923
2945,0.4700518385704728
2946,0.3980819378845232
2947,0.31624553231592334
2948,0.22603143835636946
2949,0.129496531924564
2950,0.029112998482094303
2951,-0.0724143816358848
2952,-0.17233459312590302
2953,-0.2680238001989556
2954,-0.357139049252763
2955,-0.4377383325812307
2956,-0.5083477805089407
2957,-0.5679810003842716
2958,-0.616129275655115
2959,-0.6527282009193376
2960,-0.6780983929460617
2961,-0.6928637001107535
2962,-0.6978578172674996
2963,-0.6940321383221286
2964,-0.6823776135040838
2965,-0.6638693322707451
2966,-0.6394351614138652
2967,-0.609949256878544
2968,-0.5762420276625052
2969,-0.5391130005127898
2970,-0.49935419245893287
2971,-0.45778480699495117
2972,-0.41527043027966465
2973,-0.3727147587004521
2974,-0.331030312962597
2975,-0.2910921715736746
2976,-0.25368418475986604
2977,-0.21944745161919035
2978,-0.18883203403672028
2979,-0.1620512808260988
2980,-0.13904821895649405
2981,-0.11949331123333574
2982,-0.10282264606379353
2983,-0.08830702279422135
2984,-0.07514272710828046
2985,-0.06255950376397103
2986,-0.04992560471241456
2987,-0.036818619178587225
2988,-0.02304549534312812
2989,-0.008619324607786472
2990,0.006279587356102856
2991,0.021338136421309533
2992,0.03615446300545266
2993,0.05029875210722584
2994,0.06334855269123621
2995,0.07487716749242204
2996,0.08444830262705276
2997,0.09165376066250358
2998,0.09616414328372719
2999,0.09777137750589812
3000,0.09642957686123804
3001,0.09228960593247881
3002,0.08572479582268998
3003,0.07734891440190386
3004,0.06799712517895104
3005,0.05863670409209274
3006,0.05022932726963739
3007,0.04360384029285623
3008,0.039378259622822744
3009,0.03793520762487239
3010,0.03943087590797678
3011,0.043814604068674004
3012,0.05085030779724259
3013,0.0601272115948436
3014,0.07105305132671608
3015,0.08287295957454022
3016,0.09475956204002918
3017,0.105934981396047
3018,0.11574552070001276
3019,0.12366993261507117
3020,0.1293072608591242
3021,0.13238854850918363
3022,0.13280581083312704
3023,0.13062599903271327
3024,0.1260748487830447
3025,0.11948799275675219
3026,0.11124642685201576
3027,0.10174341463992372
3028,0.09140891645019696
3029,0.08076084789062102
3030,0.07043655828186755
3031,0.061183830159746794
3032,0.05381290439476688
3033,0.04910876182331784
3034,0.047685751162928496
3035,0.04979915751140565
3036,0.05521666710729823
3037,0.06324911463841842
3038,0.0729124105821648
3039,0.08311774497683255
3040,0.09282953685595574
3041,0.1011832277239757
3042,0.10755565520364149
3043,0.1115698701369607
3044,0.11303491760437055
3045,0.11185526224263061
3046,0.10796673530619923
3047,0.10133938394138506
3048,0.09203504634308461
3049,0.08028061987412241
3050,0.06653704018729795
3051,0.05154540205049522
3052,0.03630886940647505
3053,0.021989916165301847
3054,0.009753706742059725
3055,0.0006065997734112671
3056,-0.004727825246275056
3057,-0.005864460943920217
3058,-0.0027408337241744793
3059,0.004444408172824241
3060,0.015300900738432481
3061,0.02928788303015385
3062,0.04571658663298845
3063,0.0637385524829511
3064,0.08235256920531837
3065,0.1004597968466127
3066,0.11698522600034159
3067,0.13102731314951052
3068,0.14196117500417854
3069,0.1494685798882009
3070,0.15352119345012338
3071,0.15434633158010033
3072,0.15238493640937675
3073,0.14823103070728022
3074,0.1425462487556656
3075,0.13596969540033726
3076,0.12905020537669046
3077,0.12220945142854606
3078,0.11573423792997133
3079,0.10980126123920496
3080,0.10452493908738629
3081,0.09999492619868343
3082,0.09628025934351404
3083,0.09341071683744029
3084,0.09135912335392275
3085,0.09003904173454451
3086,0.08931524904635345
3087,0.08901395283006334
3088,0.08893606397947551
3089,0.08889451850293212
3090,0.08877137402347142
3091,0.08855764862407287
3092,0.08835402505111233
3093,0.08834670260786333
3094,0.08876977852987267
3095,0.08984137624544995
3096,0.09167903171556485
3097,0.09423607530117876
3098,0.09729797302246991
3099,0.10053824579752199
3100,0.10359543122388007
3101,0.106140874639292
3102,0.1079311843622126
3103,0.10883698939019897
3104,0.10884741116879249
3105,0.1080595725120116
3106,0.10665497093754941
3107,0.10486643695404271
3108,0.10294226253483726
3109,0.10111380501482065
3110,0.09957695542674867
3111,0.09848845913469241
3112,0.09796751323558373
3113,0.09810208398185699
3114,0.09895992660270096
3115,0.10058801938338832
3116,0.1029967089937566
3117,0.10615855019859045
3118,0.11003708061708652
3119,0.11460851346574706
3120,0.11983537933640662
3121,0.125600868665751
3122,0.1316534592236623
3123,0.1376071228255453
3124,0.14299533015612387
3125,0.14734702966966887
3126,0.15026486677140605
3127,0.1514901117170841
3128,0.1509335954913692
3129,0.1486673736714251
3130,0.14489914907480306
3131,0.13995393059879999
3132,0.1342532989368686
3133,0.12826890806448843
3134,0.12245765507473719
3135,0.11720064127134082
3136,0.1127588207430476
3137,0.10925741309785293
3138,0.10669905528920946
3139,0.10499750790014412
3140,0.10403124372280301
3141,0.10369445520831516
3142,0.10391065604847696
3143,0.10461861162021435
3144,0.10576095193693352
3145,0.10726868576384017
3146,0.10902989956135813
3147,0.11086998762003945
3148,0.11257163502731365
3149,0.11392528982108187
3150,0.11478521564813854
3151,0.11511100068658862
3152,0.1149774628498496
3153,0.11454074643614667
3154,0.11395499700170411
3155,0.11326699326158433
3156,0.11235444158116202
3157,0.11093719383786721
3158,0.10863471292647259
3159,0.10504854768660787
3160,0.09985452417652471
3161,0.0928766715879432
3162,0.08412328673209533
3163,0.07378028366714669
3164,0.06216705520008662
3165,0.04967291893222964
3166,0.036699127160768785
3167,0.02362125228209618
3168,0.010764562174981937
3169,-0.001619666555979368
3170,-0.01336657320797331
3171,-0.024383733758424044
3172,-0.03462318723923321
3173,-0.04406188337294681
3174,-0.052692804356102546
3175,-0.0605220051631421
3176,-0.06757136576733379
3177,-0.07387627957110506
3178,-0.07946981061152814
3179,-0.08436816855853103
3180,-0.0885757561939669
3181,-0.09211130908085588
3182,-0.09504806691321374
3183,-0.0975538614914144
3184,-0.09990291477038125
3185,-0.10243467803610581
3186,-0.1054660428843949
3187,-0.10920158843869913
3188,-0.11369539157258252
3189,-0.1188736973471691
3190,-0.12458163677692222
3191,-0.13062111494991735
3192,-0.13677126182839747
3193,-0.1427961161332846
3194,-0.14845131706632916
3195,-0.15349849782230346
3196,-0.15772580630775065
3197,-0.16097222440608144
3198,-0.16314799319554907
3199,-0.1642325678321596
3200,-0.16424857175445817
3201,-0.16324106972192184
3202,-0.1612900090620378
3203,-0.1585452235062922
3204,-0.15524693798358197
3205,-0.1517131436915162
3206,-0.14829507910480708
3207,-0.14530915180190088
3208,-0.14297749863979936
3209,-0.1414049099420128
3210,-0.1405824239741792
3211,-0.140416161607753
3212,-0.14079600432637976
3213,-0.14167350977867932
3214,-0.1430910433874071
3215,-0.1451525632651328
3216,-0.14797224123545058
3217,-0.15162790747906923
3218,-0.15612282833108176
3219,-0.16135568728259936
3220,-0.16710533539825242
3221,-0.1730395951149885
3222,-0.17875169533456564
3223,-0.18381485670399794
3224,-0.18783839297496413
3225,-0.19051326059436186
3226,-0.19164333355413002
3227,-0.19116539468697452
3228,-0.1891544257525756
3229,-0.18580164402032467
3230,-0.18136848909512848
3231,-0.1761421570767777
3232,-0.17041309984446637
3233,-0.16446879201639866
3234,-0.1585832870188886
3235,-0.15299433171981974
3236,-0.14788365992372737
3237,-0.14338218688430596
3238,-0.13958383302154698
3239,-0.13652161959329787
3240,-0.13411007119762083
3241,-0.13211039378608702
3242,-0.13015581222554265
3243,-0.12783441018363667
3244,-0.12479986551187416
3245,-0.12088181287470479
3246,-0.11617758758423435
3247,-0.1110895393586675
3248,-0.10626273766699361
3249,-0.1024166522744619
3250,-0.10013811719690788
3251,-0.0997375802839758
3252,-0.10121763615396569
3253,-0.10432785395498693
3254,-0.1086491242766015
3255,-0.11366679167567899
3256,-0.11882913684638034
3257,-0.12360384994704536
3258,-0.12753214849946032
3259,-0.1302702919126441
3260,-0.131609874235108
3261,-0.1314734296060058
3262,-0.12989189956831748
3263,-0.12697588123334086
3264,-0.12288830436915962
3265,-0.11782137574339782
3266,-0.11197869256126793
3267,-0.10556681068377351
3268,-0.09880403787100223
3269,-0.09193855768453318
3270,-0.0852473072381982
3271,-0.07900541796364058
3272,-0.07345204482695011
3273,-0.06877017228509087
3274,-0.06506679152050544
3275,-0.06235013984984542
3276,-0.060534862099743965
3277,-0.05949044627767047
3278,-0.05909365252085686
3279,-0.05924397454384154
3280,-0.05984806152901939
3281,-0.0607984267063227
3282,-0.06196468322662851
3283,-0.06320228430648196
3284,-0.06437048873332486
3285,-0.06534983548032715
3286,-0.06605256287784823
3287,-0.06642521947909048
3288,-0.0664475952297456
3289,-0.06612750594003891
3290,-0.06548876110497606
3291,-0.0645572938345165
3292,-0.06335688121737466
3293,-0.06191969166593971
3294,-0.06029967624706735
3295,-0.05857044378623126
3296,-0.056806387966367035
3297,-0.05506263441150895
3298,-0.053365778204855066
3299,-0.051718415225856344
3300,-0.050118047922659975
3301,-0.04858095250152308
3302,-0.047150336807171914
3303,-0.04588197782312431
3304,-0.044821681342598986
3305,-0.04398846590442289
3306,-0.04336891594717604
3307,-0.042918064286605516
3308,-0.04255481870093608
3309,-0.042155398378403514
3310,-0.041558964790391326
3311,-0.04058800379461767
3312,-0.03908526770490519
3313,-0.036962238489178276
3314,-0.034230261820016136
3315,-0.030991897125654918
3316,-0.027400721183996397
3317,-0.023619286763840567
3318,-0.019811583623231818
3319,-0.016180167350251403
3320,-0.013000698013944411
3321,-0.010588979920764631
3322,-0.009206707153595716
3323,-0.008978483564489822
3324,-0.009866235937346415
3325,-0.011695584366330275
3326,-0.014208789989721814
3327,-0.01711274964795309
3328,-0.02010508713642566
3329,-0.02288832042261813
3330,-0.0251883428277026
3331,-0.026782459025685594
3332,-0.027528215073286746
3333,-0.027377065142152632
3334,-0.026368095598899376
3335,-0.024608199741461247
3336,-0.022244812453419263
3337,-0.019441193549697196
3338,-0.016359223324294347
3339,-0.013146069966743112
3340,-0.009936004712614313
3341,-0.006875693310897387
3342,-0.004141992796891727
3343,-0.001921719112867601
3344,-0.0003700123525078071
3345,0.00042797057096180427
3346,0.0004891045528806742
3347,-5.449756789085988e-05
3348,-0.000978529819782697
3349,-0.002014519128120596
3350,-0.0028968594317157724
3351,-0.0033962005128951437
3352,-0.003337094674551764
3353,-0.0026004014661049554
3354,-0.001120327922430469
3355,0.0011088366814869309
3356,0.004013249547838532
3357,0.007420084974987726
3358,0.011056912752988625
3359,0.01457835264756569
3360,0.017611338509647006
3361,0.01980401946507949
3362,0.02086959855259197
3363,0.020626045885153987
3364,0.019030337838061052
3365,0.01619569542723659
3366,0.012383178732179142
3367,0.00796808578726357
3368,0.0033855363474524338
3369,-0.0009320696808099637
3370,-0.0046080359877908
3371,-0.007356340730229665
3372,-0.008996029278849845
3373,-0.009441808703918947
3374,-0.008679175343625316
3375,-0.006743382895271921
3376,-0.0037096444038131533
3377,0.0003127562128628891
3378,0.005185739174514858
3379,0.010744744445560917
3380,0.016800890166815158
3381,0.023148062808396822
3382,0.02957470730221267
3383,0.03587615345920894
3384,0.041865388691499694
3385,0.0473836247751517
3386,0.05231204509831709
3387,0.056583312129830476
3388,0.060182950931998824
3389,0.06312747167206319
3390,0.06543052961650309
3391,0.06709485214100806
3392,0.06814211580948738
3393,0.06864500535878588
3394,0.06872607967494879
3395,0.06852187358982362
3396,0.06813419635777829
3397,0.06759717186877187
3398,0.06687276062698454
3399,0.06586438755610909
3400,0.06443742158557186
3401,0.06244485336355785
3402,0.05975641951136257
3403,0.056287900241794364
3404,0.052025869562027455
3405,0.04704109175445541
3406,0.04148697870298822
3407,0.035581612146096765
3408,0.029576714147956307
3409,0.02372612417865304
3410,0.01826228146221704
3411,0.013378053715290578
3412,0.009211353321221428
3413,0.005833442398891975
3414,0.0032398555490123137
3415,0.0013460474811788786
3416,-1.1984110127104582e-06
3417,-0.0009906215218413845
3418,-0.0018041426135235888
3419,-0.0025835792312310845
3420,-0.003414658789854254
3421,-0.004323093206513406
3422,-0.005268311912511666
3423,-0.006136238935792462
3424,-0.006761082014241897
3425,-0.0069918232088938825
3426,-0.006769063873105492
3427,-0.006168936411933414
3428,-0.005404293883368662
3429,-0.004782663698179473
3430,-0.004627697690040357
3431,-0.005207184966587489
3432,-0.006702570902391584
3433,-0.009204211174597675
3434,-0.012711145367431169
3435,-0.017133692422404458
3436,-0.022297266862170873
3437,-0.027949635581693125
3438,-0.033775399190752224
3439,-0.03941434883010361
3440,-0.04448770059411242
3441,-0.048638158215778125
3442,-0.05157098446258329
3443,-0.05307718480704218
3444,-0.053038280082066715
3445,-0.051427416661278855
3446,-0.04831216325204993
3447,-0.04384786455254488
3448,-0.038258536902876436
3449,-0.03181708382738688
3450,-0.024828388516211882
3451,-0.01761401684862963
3452,-0.010503125479132366
3453,-0.0038215762477854546
3454,0.0021346071259247318
3455,0.0071333458719924775
3456,0.011029463087946377
3457,0.013770496720676867
3458,0.015389361790709617
3459,0.015990318062104082
3460,0.015734779257588517
3461,0.014828048508396464
3462,0.013502518296647604
3463,0.011995369987551314
3464,0.010525218047270416
3465,0.009274444693066246
3466,0.008382062091359119
3467,0.007945892189706876
3468,0.008021925846333168
3469,0.008610459790912774
3470,0.009640865233747131
3471,0.010975831350057736
3472,0.012434060053756385
3473,0.01381291631267983
3474,0.014903399336464215
3475,0.015507986990178154
3476,0.015472080029373043
3477,0.014721991497411128
3478,0.013288732278879818
3479,0.011301668929097512
3480,0.008955070472598468
3481,0.006470078165315185
3482,0.004073146178432839
3483,0.0019894080003679893
3484,0.00043439140976904856
3485,-0.0004056192559402656
3486,-0.00039971753658869043
3487,0.0005070140368237483
3488,0.002292379621570215
3489,0.004882263215701844
3490,0.008185552818417537
3491,0.012112487090419965
3492,0.016574280076537475
3493,0.021483503024953273
3494,0.026769365323251002
3495,0.03240449413799645
3496,0.03842869616559763
3497,0.04496170143597984
3498,0.05220885899719915
3499,0.06045987688496777
3500,0.07007270750866722
3501,0.08144233100652515
3502,0.09496487072657216
3503,0.11100667962457612
3504,0.12987750122896877
3505,0.15179679899466375
3506,0.17685382040413272
3507,0.20498353108203754
3508,0.23597396235202994
3509,0.2694940106215108
3510,0.3051198618486296
3511,0.34234994911678085
3512,0.3806133505930738
3513,0.419274599807085
3514,0.4576298741437789
3515,0.4948975844407324
3516,0.5302154696824913
3517,0.5626499316904225
3518,0.59121679618343
3519,0.614911060100971
3520,0.6327413232965129
3521,0.6437629855205325
3522,0.6471016579965698
3523,0.6419659603768839
3524,0.6276640287958182
3525,0.6036355837181661
3526,0.5694950982681823
3527,0.5250773918436186
3528,0.47048911640469104
3529,0.40617051285943445
3530,0.3329527510148944
3531,0.25208875647559353
3532,0.16524556861938985
3533,0.07445381773342821
3534,-0.01798677107508143
3535,-0.10964152080710689
3536,-0.1980973456480489
3537,-0.2811124107877521
3538,-0.35673799621600644
3539,-0.4234101354501409
3540,-0.4800124735203414
3541,-0.525904972437143
3542,-0.56091113684514
3543,-0.5852632517705493
3544,-0.5995167196505345
3545,-0.6044573278669575
3546,-0.6010264487708261
3547,-0.5902659853462571
3548,-0.5732726529382801
3549,-0.5511687086347787
3550,-0.5250891528201501
3551,-0.49615877264471986
3552,-0.46544464655250645
3553,-0.4338989581813165
3554,-0.4023154279181239
3555,-0.3713168764602738
3556,-0.3413702565785466
3557,-0.312804431809566
3558,-0.28581835757551427
3559,-0.2604875551930652
3560,-0.23677291798262443
3561,-0.2145378283554395
3562,-0.1935861104322344
3563,-0.173712780244476
3564,-0.15474536667083305
3565,-0.13657917468879896
3566,-0.11921665151613993
3567,-0.10277933878668019
3568,-0.08746790037000887
3569,-0.07351023136535628
3570,-0.061133331880762795
3571,-0.050539098114810846
3572,-0.0418651434716004
3573,-0.03514467510065627
3574,-0.030283511644036927
3575,-0.02705969823842847
3576,-0.025146780955187648
3577,-0.024157619062062145
3578,-0.023689861593070394
3579,-0.023352592282172457
3580,-0.022782785140569212
3581,-0.021671857098843367
3582,-0.019795216707796687
3583,-0.017028351318159215
3584,-0.013352796291282373
3585,-0.00885571035196972
3586,-0.003714330187698836
3587,0.0018374632470513964
3588,0.0075514582590173905
3589,0.013203086513039457
3590,0.01861305967997066
3591,0.023650565171650113
3592,0.028227508603767645
3593,0.03229261782736233
3594,0.03582290784140485
3595,0.03880916458289618
3596,0.0412472044448993
3597,0.043147620145363455
3598,0.04455387656686954
3599,0.045542219536513995
3600,0.04619510967091978
3601,0.04657445013405676
3602,0.04671682230288981
3603,0.046640446320730826
3604,0.046350552638209794
3605,0.0458440191586085
3606,0.045115259198571504
3607,0.044164064709109316
3608,0.043001677650640856
3609,0.04164807261900279
3610,0.040125257190482905
3611,0.038459573667001035
3612,0.03669483585168867
3613,0.03490505975977641
3614,0.03319644087296131
3615,0.031697626186075814
3616,0.030544253216231533
3617,0.029866183895151624
3618,0.029782836726240925
3619,0.030401271018752906
3620,0.03180317204860104
3621,0.034017053874707534
3622,0.036993170980454106
3623,0.04060105008479241
3624,0.044648423828908115
3625,0.04890475589913758
3626,0.053122483764294924
3627,0.05705782664416704
3628,0.06048136334951158
3629,0.06317746799709516
3630,0.06495264353811511
3631,0.06565704527260349
3632,0.06520706098447622
3633,0.06360677358750771
3634,0.06096340507152585
3635,0.057479447304252786
3636,0.053418764627841224
3637,0.049070177073423454
3638,0.0447266748687957
3639,0.04067218442256525
3640,0.03716329632534042
3641,0.03440836271205899
3642,0.032552966057739004
3643,0.031674085953542694
3644,0.031779720841062994
3645,0.03282042408007639
3646,0.03472146230562717
3647,0.037415916547212394
3648,0.04084741606797079
3649,0.04494010852722143
3650,0.04955654518524523
3651,0.05446655071405816
3652,0.059345864116475085
3653,0.06381455133020669
3654,0.06750773601524775
3655,0.07014667946042588
3656,0.07157539863251279
3657,0.07175689283025255
3658,0.07074878530219571
3659,0.06867867908419412
3660,0.06572417396500185
3661,0.062091660399282184
3662,0.057991483376467284
3663,0.05361964499812595
3664,0.04915967152784071
3665,0.04479709048308715
3666,0.040722960592482635
3667,0.03712123466363106
3668,0.03415782056296547
3669,0.03198128315663086
3670,0.030719284802070885
3671,0.030457594222560426
3672,0.031221018860792114
3673,0.032978061895602616
3674,0.035655324592187926
3675,0.039138365130062316
3676,0.04326425647941512
3677,0.04782189364996345
3678,0.05256336783958981
3679,0.0572294453999108
3680,0.061590124821671026
3681,0.0654784902924653
3682,0.06879506528532696
3683,0.07149359541706905
3684,0.07356912594544782
3685,0.07504838007213141
3686,0.07597869634934215
3687,0.0764211893525168
3688,0.07645268293965637
3689,0.07617283146338642
3690,0.07570638372772809
3691,0.07519282396181924
3692,0.07476546489548723
3693,0.07453238287935643
3694,0.07456957992046243
3695,0.0749221403965893
3696,0.07560702526790339
3697,0.07661908450090003
3698,0.07794004502385621
3699,0.07954818178061632
3700,0.08142866142590566
3701,0.08358056792713042
3702,0.08601056823591077
3703,0.08871105087321071
3704,0.09164135901390291
3705,0.09473481647297405
3706,0.09792731983208502
3707,0.10118043547212216
3708,0.10448905086422305
3709,0.10789025063366336
3710,0.11146825166048116
3711,0.11531558639347991
3712,0.1194503309162681
3713,0.12375691730988098
3714,0.1280008411746409
3715,0.13189353620524752
3716,0.13515402874219232
3717,0.13754390274523873
3718,0.13888857949087766
3719,0.13910106661661137
3720,0.13820253615077738
3721,0.13631995642539385
3722,0.1336534620946733
3723,0.13043202946917376
3724,0.1268822230531449
3725,0.12321322886477656
3726,0.11960467752016281
3727,0.11619433480344629
3728,0.11307485914489387
3729,0.11029977477368826
3730,0.1078902102280371
3731,0.10583984565767253
3732,0.10411693645703349
3733,0.1026606979321357
3734,0.10137777020218834
3735,0.10014603139426902
3736,0.09882798054776017
3737,0.09729778357014457
3738,0.09547679403680276
3739,0.09335664426621594
3740,0.09099684677595839
3741,0.08850074373844616
3742,0.08597540657566073
3743,0.08348382230107833
3744,0.0810054741148579
3745,0.07841539731795677
3746,0.07548728694905515
3747,0.07193420753240884
3748,0.06748463520908064
3749,0.06195835606727352
3750,0.05530857345485924
3751,0.04762410931949866
3752,0.039101902510086696
3753,0.03000540495752092
3754,0.02062353839850915
3755,0.01124036069200642
3756,0.002118518503345132
3757,-0.006512575651190653
3758,-0.01447240891057067
3759,-0.02164351985393411
3760,-0.027975859446874633
3761,-0.03347913635678797
3762,-0.03820884484266449
3763,-0.04225521227362099
3764,-0.04573352033643362
3765,-0.04876986257427634
3766,-0.05148792725766174
3767,-0.054006089977263305
3768,-0.056442141726100806
3769,-0.05891382113916679
3770,-0.06152955614576524
3771,-0.06437380036355647
3772,-0.06749305331849131
3773,-0.07088614062937926
3774,-0.07450503532770379
3775,-0.0782732429667289
3776,-0.08211481995449887
3777,-0.08597785825111005
3778,-0.08984355990242428
3779,-0.09371950536756675
3780,-0.09762181059522025
3781,-0.10155681077143211
3782,-0.10551251799109583
3783,-0.1094625642324521
3784,-0.113377084305857
3785,-0.11723381135830983
3786,-0.12102551815311509
3787,-0.12476051970005608
3788,-0.12845288681824546
3789,-0.13210284648305637
3790,-0.13567215098436913
3791,-0.13906302763712944
3792,-0.14211262403973407
3793,-0.1446098785014011
3794,-0.14633083621605947
3795,-0.14708423027190562
3796,-0.14676538118044974
3797,-0.14540679913123766
3798,-0.1431914581546572
3799,-0.1404139294224186
3800,-0.13741231212223765
3801,-0.13449751295215118
3802,-0.1319012395391634
3803,-0.1297574661955581
3804,-0.12811599474859442
3805,-0.1269770789806443
3806,-0.12632578309996784
3807,-0.12614691530643798
3808,-0.1264221112409369
3809,-0.1271171244390553
3810,-0.12816941367188422
3811,-0.12948833600500934
3812,-0.1309613891689043
3813,-0.1324523872441126
3814,-0.13379981800170335
3815,-0.1348315673509178
3816,-0.13539408017898513
3817,-0.13538129099756513
3818,-0.13474811176886362
3819,-0.13350269284800123
3820,-0.13168928778818692
3821,-0.12937727358377601
3822,-0.12665764306619617
3823,-0.12364047693766034
3824,-0.120451414697969
3825,-0.11722730457966325
3826,-0.1141082516234126
3827,-0.111222255494729
3828,-0.10866349437468388
3829,-0.10647664847373149
3830,-0.10466164589079507
3831,-0.10319370638994745
3832,-0.10203799404353067
3833,-0.10114950330699331
3834,-0.10046668856229701
3835,-0.09990746549496918
3836,-0.09937089833852102
3837,-0.09874806894639784
3838,-0.09793930297265234
3839,-0.09687078082198598
3840,-0.0955090129486575
3841,-0.09387114782296546
3842,-0.09202816007351763
3843,-0.09009911391616393
3844,-0.0882286408904321
3845,-0.08654388946271586
3846,-0.08510748200832162
3847,-0.08389354853604061
3848,-0.08279450937763945
3849,-0.08164140049239539
3850,-0.08023005776349514
3851,-0.07835949466821825
3852,-0.07587120818944676
3853,-0.07266990764575187
3854,-0.06872966606595692
3855,-0.0641036185618578
3856,-0.058939508928019996
3857,-0.05348332323508074
3858,-0.04805637428697297
3859,-0.04301260971158877
3860,-0.038691745763554455
3861,-0.03537725478171039
3862,-0.03326454106095571
3863,-0.032443310683826554
3864,-0.032898081883338565
3865,-0.0345250846918167
3866,-0.03715238013200775
3867,-0.040552454098403364
3868,-0.04445179661438742
3869,-0.0485478147149601
3870,-0.05253450688287703
3871,-0.056133664784407095
3872,-0.059127685618362326
3873,-0.061381425622181435
3874,-0.06284161404148254
3875,-0.06351847928365884
3876,-0.0634625370979504
3877,-0.06274501085501669
3878,-0.06144472337151449
3879,-0.059641844963593336
3880,-0.05741737782873427
3881,-0.05485698745874484
3882,-0.052057205499319574
3883,-0.049127308747325335
3884,-0.0461818533371
3885,-0.04333044150161103
3886,-0.040673449051208746
3887,-0.038303465419024275
3888,-0.03630687672799258
3889,-0.03476007727249906
3890,-0.033720375951900625
3891,-0.033218325983520716
3892,-0.03325456407788192
3893,-0.03379564590488176
3894,-0.034762775165569026
3895,-0.03601938246565051
3896,-0.037377223085786185
3897,-0.0386260580609187
3898,-0.03955985593555303
3899,-0.03997850329267102
3900,-0.03967950667429898
3901,-0.03846427182427009
3902,-0.0361685150108687
3903,-0.03270923583173954
3904,-0.02812505148662288
3905,-0.022582914431717595
3906,-0.016343898345237917
3907,-0.009712724700913972
3908,-0.003008460447387706
3909,0.0034329968051030582
3910,0.009252435329663024
3911,0.014086515508453887
3912,0.017609099868880856
3913,0.019573649898534468
3914,0.01984721908022677
3915,0.018430512054320742
3916,0.015458565877931933
3917,0.01118973543715739
3918,0.005987040421290779
3919,0.0002783583518526939
3920,-0.0055071864823953804
3921,-0.01100190807321067
3922,-0.0159369186836242
3923,-0.020150886949277483
3924,-0.0235760849995432
3925,-0.026207613995386177
3926,-0.02806807183381051
3927,-0.029183790694675804
3928,-0.02957800662986817
3929,-0.02927386624874918
3930,-0.028300039697983562
3931,-0.026695138116984415
3932,-0.024508457552740205
3933,-0.02179981034682473
3934,-0.01864357177708141
3935,-0.01513220289111494
3936,-0.011371063023729843
3937,-0.00747028698585725
3938,-0.0035445345303489594
3939,0.00027897439641615075
3940,0.003853557020699797
3941,0.007022035681532536
3942,0.009644240680931185
3943,0.011622050380761346
3944,0.012902867774173307
3945,0.013466693279449575
3946,0.01331436702269509
3947,0.012468292587630214
3948,0.010980465887310406
3949,0.008936076428049776
3950,0.006454671459013081
3951,0.003691666496853796
3952,0.0008255719038285567
3953,-0.0019743934556089924
3954,-0.004574796102120189
3955,-0.006875042069173362
3956,-0.008783775205118265
3957,-0.010194027711892154
3958,-0.010968157386421162
3959,-0.01094871765551245
3960,-0.010002329117575084
3961,-0.008072254980004185
3962,-0.005210777341625068
3963,-0.001578970238388322
3964,0.0025867604248413275
3965,0.007027073346059286
3966,0.01150568360582524
3967,0.01582711649943465
3968,0.01982540890748725
3969,0.023348687374899993
3970,0.026264357768601514
3971,0.028482906193789542
3972,0.0299784273598086
3973,0.030791099781707843
3974,0.031015412928865883
3975,0.03078343505037925
3976,0.030245941372028996
3977,0.029550561398080814
3978,0.028821120349124492
3979,0.028149526977275654
3980,0.027604153118219607
3981,0.027243503194086475
3982,0.027123620711827227
3983,0.027295945292307697
3984,0.0277984065902831
3985,0.02864808823980272
3986,0.029844972963653807
3987,0.0313854961527767
3988,0.03326709737531019
3989,0.03547203191317525
3990,0.03795285432168163
3991,0.04064381356667493
3992,0.04348228271821071
3993,0.046411988988083686
3994,0.049368597305339684
3995,0.052265719032928
3996,0.054992191235554044
3997,0.057421762893874205
3998,0.059432265174976816
3999,0.0609257363707969
4000,0.06183814627701545
4001,0.06213851569358008
4002,0.06182541564303272
4003,0.06092283042606126
4004,0.059474497437201096
4005,0.057537596442012014
4006,0.055175954952228434
4007,0.052454114614145224
4008,0.04943146018164045
4009,0.046151037813157963
4010,0.04262956417003098
4011,0.038865521294132996
4012,0.034862708650160876
4013,0.03065170496963657
4014,0.02630637108164865
4015,0.0219586274637859
4016,0.017800049256226056
4017,0.014053650374405669
4018,0.010913111818755294
4019,0.008476422083481223
4020,0.006719585782945389
4021,0.005522448539632754
4022,0.004708223630700044
4023,0.004063064124989289
4024,0.0033425613239959086
4025,0.0022843677036833146
4026,0.0006373430782090106
4027,-0.0017920598581902924
4028,-0.0050940284988298815
4029,-0.009234353755215622
4030,-0.014064046043702877
4031,-0.01934869261265955
4032,-0.024806468249180813
4033,-0.03014894183061728
4034,-0.035121158513335485
4035,-0.039534997176391966
4036,-0.04328022218920448
4037,-0.04630465946174816
4038,-0.04858375866559439
4039,-0.05010620433746387
4040,-0.050877318036086416
4041,-0.05092670823485451
4042,-0.050312214702256275
4043,-0.049118378543150154
4044,-0.04745027661526413
4045,-0.04542494555346876
4046,-0.04316055823409207
4047,-0.040763534912212095
4048,-0.038317949340212
4049,-0.03588260820511876
4050,-0.03349665050637831
4051,-0.03118972975766608
4052,-0.028992285826229636
4053,-0.026941215551581774
4054,-0.025073849551900975
4055,-0.023410407111035304
4056,-0.021941018333226238
4057,-0.020631141338472544
4058,-0.019435560000993612
4059,-0.018306588078837657
4060,-0.017204954384272376
4061,-0.016119648907532546
4062,-0.015075053079061781
4063,-0.014110424319741134
4064,-0.0132504152775522
4065,-0.012489769304876627
4066,-0.011792005380698717
4067,-0.011090918082839431
4068,-0.01029332257398985
4069,-0.009288204048861284
4070,-0.007964372076631124
4071,-0.006236539699606874
4072,-0.0040762617445700075
4073,-0.001535967416725424
4074,0.0012456088255525205
4075,0.004058421666639488
4076,0.0066523448551541985
4077,0.008777878762276333
4078,0.010227790757705002
4079,0.010869736107784023
4080,0.010659708821262942
4081,0.009634140003239434
4082,0.00789070762838689
4083,0.005571711032100664
4084,0.0028510449675931407
4085,-8.416122122315683e-05
4086,-0.0030530005397167077
4087,-0.005890230084415104
4088,-0.008450241359466154
4089,-0.010617251436937532
4090,-0.012321955680416044
4091,-0.013551473235470348
4092,-0.014340077416948033
4093,-0.01474624587336297
4094,-0.014832173862065026
4095,-0.014652323746343381
4096,-0.014243759619865983
4097,-0.013605325378949462
4098,-0.012665281699022335
4099,-0.011252235768607413
4100,-0.009080298013984823
4101,-0.005755469993611413
4102,-0.0008091853126439314
4103,0.006249618027147823
4104,0.015883641517387206
4105,0.028491234097965917
4106,0.04438785837838533
4107,0.06379644216098598
4108,0.08683424530680811
4109,0.11350171470905462
4110,0.14369294980273858
4111,0.1772293484039649
4112,0.21389276958350756
4113,0.2534354169879809
4114,0.29556331298242916
4115,0.3399047884695361
4116,0.3859818922108999
4117,0.43319117536377766
4118,0.4807773401097813
4119,0.5278035929326312
4120,0.5731579022293122
4121,0.6156021885812951
4122,0.6538252195800037
4123,0.6864790661205321
4124,0.7122151902286253
4125,0.729735331952806
4126,0.7378512485425841
4127,0.7355382986655814
4128,0.7219821768977638
4129,0.6966246880110866
4130,0.6591995149058213
4131,0.6097502693476773
4132,0.5486463335400152
4133,0.47661679560869463
4134,0.39479054525649376
4135,0.3047033886369574
4136,0.2082544761483425
4137,0.10762952551681987
4138,0.00520945368830744
4139,-0.09653372077907275
4140,-0.1951555783871286
4141,-0.2883636189806928
4142,-0.37413022402133916
4143,-0.4507841971511154
4144,-0.5170802576150789
4145,-0.5722430632526143
4146,-0.6159732116926829
4147,-0.6484037741114247
4148,-0.6700190606424422
4149,-0.6815687355390393
4150,-0.6839936874701152
4151,-0.6783550747848712
4152,-0.6657667615651309
4153,-0.6473478105142885
4154,-0.6242026523781774
4155,-0.597411096559529
4156,-0.5680019208238896
4157,-0.5369102796375381
4158,-0.5049463452978689
4159,-0.4727926926163656
4160,-0.44102157722599783
4161,-0.41011170223917376
4162,-0.3804506355832082
4163,-0.35232404145085683
4164,-0.32590248432858154
4165,-0.30124168843287624
4166,-0.2783086008537353
4167,-0.25702432034370476
4168,-0.2372983787637198
4169,-0.21903370439526423
4170,-0.20209706811382433
4171,-0.1862745162476052
4172,-0.17124708365135108
4173,-0.15660740946325963
4174,-0.14192510095233812
4175,-0.12685271848213386
4176,-0.11122439211805517
4177,-0.09510190234368626
4178,-0.07876912378766213
4179,-0.06268108740107035
4180,-0.04735774915701272
4181,-0.03324321744598252
4182,-0.02059532773641489
4183,-0.009457133916034394
4184,0.0002934745002345722
4185,0.008857113316231886
4186,0.016432377799404575
4187,0.023168388506442116
4188,0.02915609080240682
4189,0.034442348858852265
4190,0.03904220805864702
4191,0.04294213090584266
4192,0.046106075623287786
4193,0.04848959665394942
4194,0.05005446159529673
4195,0.050779376789792
4196,0.050673438755552906
4197,0.04980055197308897
4198,0.048306986737895165
4199,0.04642707474455678
4200,0.04444899085199304
4201,0.04265147080670534
4202,0.041242988254193966
4203,0.04033007168301077
4204,0.039919056929735915
4205,0.03993365297552779
4206,0.04023357556951516
4207,0.040638895221983926
4208,0.040963730278765584
4209,0.041049218254769496
4210,0.04078809753264942
4211,0.04013982517096875
4212,0.03913383907732577
4213,0.037859562943805436
4214,0.03644132308493092
4215,0.03499891948064564
4216,0.03361273512427031
4217,0.03231544753226277
4218,0.031108201209868517
4219,0.02998810513515738
4220,0.02897733924085951
4221,0.028140014113379866
4222,0.027571995173988867
4223,0.0273625567957088
4224,0.027547199435925394
4225,0.028078257622572038
4226,0.028829308627332767
4227,0.02963039460928756
4228,0.03031397414900531
4229,0.03075116564839374
4230,0.03087250161460376
4231,0.030679315622768495
4232,0.030242589736607015
4233,0.029669229721792305
4234,0.029034852947321273
4235,0.028321062402684616
4236,0.027396827475410872
4237,0.026051036519860453
4238,0.024057138205569185
4239,0.021245441497393353
4240,0.017561456374813413
4241,0.013093911504960087
4242,0.008070090143508573
4243,0.0028277479661280623
4244,-0.002224724914840623
4245,-0.006646150940780203
4246,-0.009992140066459558
4247,-0.011843745702525272
4248,-0.01183985413091101
4249,-0.009706980289813908
4250,-0.005283488212580457
4251,0.0014537906308566572
4252,0.010363501434526582
4253,0.021136928105749124
4254,0.033326460927735516
4255,0.04638839932043819
4256,0.05972884031681576
4257,0.07275447357277617
4258,0.08492715680717479
4259,0.09581283925093632
4260,0.10511138689414704
4261,0.11265923179516128
4262,0.11840657226476543
4263,0.12238109499921285
4264,0.12466045924781641
4265,0.12536911554042823
4266,0.12469177742836972
4267,0.12288278693742671
4268,0.12025450571341481
4269,0.11714058219192215
4270,0.11384718999753021
4271,0.11060987431336808
4272,0.10756528927922389
4273,0.10475084485353206
4274,0.10214462044763996
4275,0.0997238442013813
4276,0.09749820349347811
4277,0.09550848846912117
4278,0.09381250646335794
4279,0.09246417116142931
4280,0.09148322784982711
4281,0.09083448144899293
4282,0.09043600279262529
4283,0.09018742128076848
4284,0.089993189134779
4285,0.08976726497401105
4286,0.08942846077700771
4287,0.0889029619790724
4288,0.08813794111300008
4289,0.08711759154196079
4290,0.08587001433145514
4291,0.08445836361148608
4292,0.08295620531241414
4293,0.08141865855435536
4294,0.07987216846576098
4295,0.07833101550853609
4296,0.07682213523508742
4297,0.07539956316380768
4298,0.07414692178014831
4299,0.07317276099588146
4300,0.0725992539129938
4301,0.07254162102819296
4302,0.07308290906966455
4303,0.07425669255403128
4304,0.0760386298642182
4305,0.0783403613129685
4306,0.08101467487873863
4307,0.08388118291724435
4308,0.08676357489599762
4309,0.08952496391890438
4310,0.09208886867833634
4311,0.09443498055150908
4312,0.09657782841454715
4313,0.0985523876221552
4314,0.1004144277653246
4315,0.10224161915385065
4316,0.10412175035402123
4317,0.10612664238231113
4318,0.10828662085986429
4319,0.11058224121824123
4320,0.11295222064222565
4321,0.11530695494282082
4322,0.11753844049333646
4323,0.11952262023655628
4324,0.12112082361948687
4325,0.12218852769550671
4326,0.1225903753283112
4327,0.12221957087850703
4328,0.12102353440010513
4329,0.11902889502043311
4330,0.11634857643756838
4331,0.11316508679715777
4332,0.10970900644911227
4333,0.10624780363063686
4334,0.10306598122708736
4335,0.10041504028731192
4336,0.09844878862929504
4337,0.09718185470660247
4338,0.09649608044847381
4339,0.0961847017995392
4340,0.09600276699176129
4341,0.09570415910292658
4342,0.09506509690410965
4343,0.09389987337456651
4344,0.09206881225257658
4345,0.08947457404374064
4346,0.08605462022966236
4347,0.08178531693001329
4348,0.07669721443776258
4349,0.07088372297278053
4350,0.0644903182353915
4351,0.057691221970450304
4352,0.05066770501636042
4353,0.04359061055869748
4354,0.03660374934967086
4355,0.029810927040364414
4356,0.023273124026618266
4357,0.01701389457819418
4358,0.011022576855896263
4359,0.005257380838411754
4360,-0.00033158577576282455
4361,-0.005752835936247338
4362,-0.010932188003197644
4363,-0.015726080087967435
4364,-0.019992015058095097
4365,-0.023666415496090797
4366,-0.026797471353825132
4367,-0.0295307632382662
4368,-0.03208302085380592
4369,-0.03472260241096928
4370,-0.0377473694773471
4371,-0.041450848835849645
4372,-0.04608169718384573
4373,-0.05180230114066529
4374,-0.05864543349699877
4375,-0.06647896401113872
4376,-0.07499799524210304
4377,-0.08374420622305993
4378,-0.09214631987888912
4379,-0.09959730436478813
4380,-0.10556975557900984
4381,-0.10972708276587163
4382,-0.11197924279479232
4383,-0.11246291281789715
4384,-0.11147129912663835
4385,-0.10938299114744475
4386,-0.10661592376183228
4387,-0.10359763579785039
4388,-0.10073595485300477
4389,-0.09838415686165713
4390,-0.0968070740176107
4391,-0.09616487706605563
4392,-0.0965235535504515
4393,-0.09787813646993383
4394,-0.10017302563986252
4395,-0.10332199923172618
4396,-0.10722629920306415
4397,-0.1117749092805353
4398,-0.1168310329909715
4399,-0.12223437543559071
4400,-0.12782732027181168
4401,-0.13347539674498787
4402,-0.13905857660795842
4403,-0.1444444546654158
4404,-0.14946318656731322
4405,-0.15389100924004018
4406,-0.15744581783661468
4407,-0.1597987889905597
4408,-0.16060629378029984
4409,-0.15956419739417818
4410,-0.156469078796037
4411,-0.1512671456252259
4412,-0.1440910173435957
4413,-0.13528154464652545
4414,-0.1253781998763293
4415,-0.11507151466536941
4416,-0.10512499373054483
4417,-0.09627661790506646
4418,-0.08913291895104135
4419,-0.08408159426247998
4420,-0.08125455090983859
4421,-0.0805485368179351
4422,-0.08167959316109691
4423,-0.08424857167792862
4424,-0.08780693050496918
4425,-0.09190730079445607
4426,-0.09612741869368246
4427,-0.1000783644791985
4428,-0.10342061062770218
4429,-0.1058989648039325
4430,-0.10738088648032862
4431,-0.1078697418544553
4432,-0.1074845332210662
4433,-0.10642970505659986
4434,-0.10497443963752583
4435,-0.10342036569540528
4436,-0.10202759275415427
4437,-0.1009231970922516
4438,-0.1000598353905119
4439,-0.09925587570716214
4440,-0.09828171067756908
4441,-0.09693737876873589
4442,-0.09509700715366713
4443,-0.09272901598721675
4444,-0.08990191605551504
4445,-0.08676755849782795
4446,-0.08351382370380915
4447,-0.08030448495734281
4448,-0.07724157886602609
4449,-0.07436519929152434
4450,-0.07167493222980992
4451,-0.06915449803475483
4452,-0.06678992456746506
4453,-0.06457405507384066
4454,-0.06250311695899205
4455,-0.06058286986971878
4456,-0.05884525657478215
4457,-0.05735864284764441
4458,-0.056221290612978626
4459,-0.055536665483879866
4460,-0.0553720625359205
4461,-0.05571313093459824
4462,-0.05644496398189057
4463,-0.05738049048840791
4464,-0.05831512372012595
4465,-0.05907563816408472
4466,-0.0595526114612277
4467,-0.05971109926425178
4468,-0.05957882419885136
4469,-0.05922661415285755
4470,-0.0587543821137215
4471,-0.0582767958801011
4472,-0.05789931433387025
4473,-0.05769407005935133
4474,-0.05768491177800187
4475,-0.05783035155346983
4476,-0.05800104322417173
4477,-0.057979868094368225
4478,-0.05751016510418115
4479,-0.056373831793689835
4480,-0.05445458077192115
4481,-0.051760530207812
4482,-0.048410244117213494
4483,-0.04459882935140595
4484,-0.04055781777795982
4485,-0.036515814639849827
4486,-0.032666577520529205
4487,-0.02915099646109721
4488,-0.02605297746387039
4489,-0.02340600129817245
4490,-0.021202005495066564
4491,-0.019395221959467423
4492,-0.017918342666378706
4493,-0.016730757567310073
4494,-0.01587144977059894
4495,-0.015463520635973296
4496,-0.015658898782245655
4497,-0.01656662559802486
4498,-0.018213298155386148
4499,-0.020547536856666486
4500,-0.02346701528797643
4501,-0.026835646832998942
4502,-0.030475051214755706
4503,-0.03415574673821836
4504,-0.037624837297826536
4505,-0.04065841299606539
4506,-0.04309470411166688
4507,-0.04483591365512392
4508,-0.045838151733004685
4509,-0.046097825076424744
4510,-0.04563344839301808
4511,-0.04447315329336632
4512,-0.042654296885654114
4513,-0.04022140602314618
4514,-0.0372099104698339
4515,-0.03363209988000028
4516,-0.029491948004396192
4517,-0.02482388153812358
4518,-0.019724292853048612
4519,-0.014358982708901426
4520,-0.00895408067947653
4521,-0.0037732040684432724
4522,0.0009239516577327442
4523,0.004922392200649574
4524,0.008066455140027776
4525,0.010262192003889966
4526,0.011489052365129288
4527,0.011805151831498028
4528,0.011333840941261641
4529,0.010240285093341822
4530,0.008694285495336832
4531,0.0068254515670589
4532,0.004699910156665928
4533,0.002332061168929195
4534,-0.0002784978054919044
4535,-0.0031078926026361104
4536,-0.006095054331461681
4537,-0.009155218103767283
4538,-0.012186724286464418
4539,-0.015064395064669398
4540,-0.017655021816858543
4541,-0.019862796096949395
4542,-0.021663718434815824
4543,-0.02310238184368785
4544,-0.024266550271580648
4545,-0.025257443536113124
4546,-0.02615672254585237
4547,-0.026996733965866562
4548,-0.02775125590740292
4549,-0.028349161611771024
4550,-0.028686741988910823
4551,-0.02861881048442321
4552,-0.0279410708592088
4553,-0.026388047308052987
4554,-0.023653707032387734
4555,-0.01942715308139578
4556,-0.013437851090524588
4557,-0.005508379060630692
4558,0.004396310336706478
4559,0.016139874992798123
4560,0.02940582745611561
4561,0.043690563012028005
4562,0.058296728462033424
4563,0.07236174600461436
4564,0.08495181852366124
4565,0.0951984506731872
4566,0.10241866460378034
4567,0.1061841374284296
4568,0.1063462119187438
4569,0.10303488515363933
4570,0.09664051837373341
4571,0.0877747475185888
4572,0.07720390610747707
4573,0.06576696065838947
4574,0.054300212139369065
4575,0.043571219730369364
4576,0.03421059845125704
4577,0.02664499621521175
4578,0.021059836387403035
4579,0.017422697999382238
4580,0.015556403688361881
4581,0.015208044421454596
4582,0.016077119558981317
4583,0.017815403418610643
4584,0.0200323419203274
4585,0.02232999268391366
4586,0.024364159160626446
4587,0.02589829649253802
4588,0.026819686718380947
4589,0.02711829565572099
4590,0.026841269208661075
4591,0.02603794962884064
4592,0.024723438704746508
4593,0.022885068955870214
4594,0.020530622639719776
4595,0.017749377984257835
4596,0.014743586044710915
4597,0.011808175048711086
4598,0.009273674242689722
4599,0.007441196000130493
4600,0.006523416186097489
4601,0.006597803443831936
4602,0.007587087902509972
4603,0.00927704765335863
4604,0.011361255946161598
4605,0.0134903199335134
4606,0.015309988370995557
4607,0.016486683774156755
4608,0.016727909438612586
4609,0.015808642921409453
4610,0.013606206155172535
4611,0.010126054619653886
4612,0.005494153688434673
4613,-7.833356513856024e-05
4614,-0.006309951830990663
4615,-0.012813380730991381
4616,-0.019054416303501288
4617,-0.02437592398332822
4618,-0.028095053364301167
4619,-0.02961947340829134
4620,-0.028532813548613846
4621,-0.02463558930519123
4622,-0.017944641279627162
4623,-0.008663559491036088
4624,0.0028506908560755936
4625,0.016111825116607897
4626,0.030529077480053183
4627,0.045440702565039515
4628,0.06015321061667892
4629,0.07398661631741565
4630,0.08633499922866243
4631,0.09674625898684476
4632,0.10499979872126221
4633,0.11115160991043052
4634,0.11553287927233871
4635,0.11869811775509155
4636,0.12132760527324982
4637,0.12410515228860143
4638,0.12759716055338222
4639,0.13215615625335256
4640,0.1378704226001854
4641,0.1445738139573206
4642,0.15190839295545977
4643,0.15941051310304083
4644,0.16659043785558
4645,0.17299332718893357
4646,0.17824380740136575
4647,0.18207564836701223
4648,0.18434678683224628
4649,0.18504521804344182
4650,0.18428733273098027
4651,0.18229949416632324
4652,0.17937701516493665
4653,0.1758323648840296
4654,0.1719457659553646
4655,0.1679179569957269
4656,0.16383032240337037
4657,0.15962421560669354
4658,0.1550977624581332
4659,0.14991882835266312
4660,0.1436732389671736
4661,0.1359552178402914
4662,0.1264618870946882
4663,0.1150479638358259
4664,0.10173937652996318
4665,0.08672237603570832
4666,0.070308811725326
4667,0.05288699665275841
4668,0.03488313789043356
4669,0.016733501769004025
4670,-0.0011467191613829578
4671,-0.018383806088720343
4672,-0.034636926768939605
4673,-0.04957322761194028
4674,-0.06285310368922467
4675,-0.07414153360641855
4676,-0.08314206674494867
4677,-0.0896371797111276
4678,-0.0935191406581434
4679,-0.09480123117422104
4680,-0.09361434396813578
4681,-0.09020209696856506
4682,-0.08490390291935646
4683,-0.07810545725562226
4684,-0.0701794267816957
4685,-0.0614609858781283
4686,-0.05225631893280373
4687,-0.042850097271346484
4688,-0.03349931570872762
4689,-0.024425482490124297
4690,-0.015817092786270706
4691,-0.007839493063986836
4692,-0.0006411762385587576
4693,0.005650366534192377
4694,0.010940556890984174
4695,0.015177819392607336
4696,0.018355679693540076
4697,0.02050254382340069
4698,0.02165165310105439
4699,0.021798606055424493
4700,0.020879985456082214
4701,0.0188001398079506
4702,0.015494830174216993
4703,0.010995727030796413
4704,0.005464542372866455
4705,-0.0008139466320242147
4706,-0.007472251703380548
4707,-0.014117111095556054
4708,-0.02038222314884788
4709,-0.025965008941973063
4710,-0.03065156181102582
4711,-0.03432858756089866
4712,-0.03697319859759086
4713,-0.03862970590986284
4714,-0.0393907049474474
4715,-0.039380483466658116
4716,-0.03873462630264489
4717,-0.037584440691601106
4718,-0.03605403963700826
4719,-0.03426632640379666
4720,-0.032353467889809105
4721,-0.030466037752772523
4722,-0.02876435323652567
4723,-0.027379482262009758
4724,-0.026359239762030955
4725,-0.025639202392296143
4726,-0.02506028199961759
4727,-0.024409629096394
4728,-0.02346335590808373
4729,-0.02204151714603302
4730,-0.020073833866356642
4731,-0.017638417472285197
4732,-0.014940757280988181
4733,-0.0122496632768826
