timestamp,Signal
0,2.254011366989909e-05
1,0.00018768257303858023
2,0.000779131195783248
3,0.002203389626849429
4,0.00487432305516549
5,0.009118794877234345
6,0.015128042818546674
7,0.022940363479618368
8,0.03244816057519108
9,0.04341842298580784
10,0.05551371900698419
11,0.06831893679394875
12,0.08138185425691741
13,0.0942549714086306
14,0.10652098569642515
15,0.11779682237536467
16,0.12772665213851395
17,0.13598587740389653
18,0.1423073405998132
19,0.1465167299742933
20,0.1485586147503732
21,0.14851546480063935
22,0.14662913876662118
23,0.1433032632892954
24,0.13905434482367668
25,0.13441539764641278
26,0.12982541206093298
27,0.1255417063205818
28,0.12160750200830464
29,0.11789348209437643
30,0.11419509110157709
31,0.11032421405489116
32,0.10614403985962785
33,0.10155399778388882
34,0.09646342116277135
35,0.09078920930879572
36,0.08448433014300753
37,0.07755755716915577
38,0.07005457770954326
39,0.06202766582693878
40,0.05352232535728753
41,0.04457269644086298
42,0.035204968626576946
43,0.02546256656662175
44,0.015440063265315194
45,0.005302857948019338
46,-0.004715023922378659
47,-0.014341163593324525
48,-0.02331129344641259
49,-0.031404497151079416
50,-0.03846084097357766
51,-0.044386168203884066
52,-0.04914289925504697
53,-0.05273650030485595
54,-0.05521632571167101
55,-0.05669224943226267
56,-0.057346499322666555
57,-0.05742394062966105
58,-0.05720442051488055
59,-0.056973521849947584
60,-0.05700279652929556
61,-0.05753628916514912
62,-0.05877406800749788
63,-0.060848410729731975
64,-0.06380097911265627
65,-0.06757889453025645
66,-0.07205574460008239
67,-0.07705782116058858
68,-0.0823763108810574
69,-0.08777251901882396
70,-0.09298793456948774
71,-0.09776235150139558
72,-0.10187187649034724
73,-0.10518851426759962
74,-0.10772393263325847
75,-0.10961802983504668
76,-0.11108359831317101
77,-0.11234970467943615
78,-0.1136179703495874
79,-0.11501656967088587
80,-0.11655965713134392
81,-0.11814613039799204
82,-0.11961124219488861
83,-0.12080274913877644
84,-0.1216376549924529
85,-0.12212222527252523
86,-0.12234600180545441
87,-0.12245953145592113
88,-0.12263695424432393
89,-0.12302458727106867
90,-0.12368777168899367
91,-0.12458584420389629
92,-0.1255970466052734
93,-0.12657366264134454
94,-0.12739037217654206
95,-0.12797479409467033
96,-0.1283195845720616
97,-0.1284640214008453
98,-0.12844757205517549
99,-0.12826248941511134
100,-0.1278400796075335
101,-0.12709269438360232
102,-0.12597347935414357
103,-0.12448009557808992
104,-0.12260237371768593
105,-0.12028169974627122
106,-0.11741556565252907
107,-0.11389219958681421
108,-0.10963657884609646
109,-0.10464893677270601
110,-0.09901595902918042
111,-0.09289584181985286
112,-0.08648889846387485
113,-0.07999690343645438
114,-0.07358271404617095
115,-0.0673527395794516
116,-0.06137348633523291
117,-0.05571415425259294
118,-0.05048880400067235
119,-0.04586716448119012
120,-0.04205063665845641
121,-0.03923512647290385
122,-0.037568235549209884
123,-0.03709763305077774
124,-0.03773650679781713
125,-0.03928107449074569
126,-0.04146937508807027
127,-0.044040248053969486
128,-0.04677146938133737
129,-0.04949863191881606
130,-0.05211815803629673
131,-0.054573080207642864
132,-0.05682101431544964
133,-0.058798659325910024
134,-0.06040873798692116
135,-0.06153556520385401
136,-0.0620685716017708
137,-0.061916085919406304
138,-0.06101185157860499
139,-0.0593255685358367
140,-0.05687726129660702
141,-0.053743522551837286
142,-0.050050207676024236
143,-0.04595584558754178
144,-0.0416317117221305
145,-0.037240594050259576
146,-0.03291558864109828
147,-0.02875104285062318
148,-0.024816241395554495
149,-0.02117795194568051
150,-0.017903761886886672
151,-0.015040340470632903
152,-0.012592885681113017
153,-0.010521001540523522
154,-0.008738948751782844
155,-0.007121172056025568
156,-0.005528165831448208
157,-0.0038431534719461633
158,-0.0019904889038361508
159,6.82085966392338e-05
160,0.002337082661834281
161,0.004785023509291644
162,0.007351936971876483
163,0.009946089529630697
164,0.012417824948689878
165,0.014538507088281007
166,0.016023899471776633
167,0.016604905827979178
168,0.016113392339214362
169,0.014541989314745535
170,0.012048778440151384
171,0.008909128030416338
172,0.005448400224167646
173,0.0019847008565103924
174,-0.0012111469775953117
175,-0.003934847861515726
176,-0.006041322705883254
177,-0.007419821622531188
178,-0.00797561722424094
179,-0.007629891584529302
180,-0.006327418353212657
181,-0.004040104393512963
182,-0.0007744047054026919
183,0.0034038196461274395
184,0.008353482953950575
185,0.013885696215214963
186,0.01980096166390479
187,0.025888644744455007
188,0.03191340710150416
189,0.03763503235838818
190,0.04285243161383141
191,0.047432044563592145
192,0.05130931205908171
193,0.0544803559264534
194,0.05699270679459591
195,0.05892250908084468
196,0.060335125706398436
197,0.06125713077756905
198,0.06167919522362291
199,0.06157724261100762
200,0.06093549975962103
201,0.05976197252114557
202,0.05809352252329348
203,0.056001079188692654
204,0.053606877080706425
205,0.05110529062157399
206,0.04875851280912201
207,0.04684992066710485
208,0.04561388269113372
209,0.045184355833717896
210,0.04559262792551069
211,0.046799357962447344
212,0.048719968556197764
213,0.05122907173437777
214,0.0541573685447741
215,0.05729444814738395
216,0.060405754927773114
217,0.06326307782303113
218,0.06568186951050996
219,0.06755722270728359
220,0.06887886343301033
221,0.06970695268647939
222,0.07012006741413584
223,0.07017017779859297
224,0.06986925395344355
225,0.06920200645776767
226,0.06814613265100289
227,0.06669233572971511
228,0.06486003886996317
229,0.06270010108866779
230,0.06028526062613809
231,0.05770035505780474
232,0.055040403310231675
233,0.0524155731940616
234,0.04995521547890126
235,0.047800698615940565
236,0.046083434845791825
237,0.04489611827726786
238,0.04427910679991269
239,0.04423381941353795
240,0.04473656914066379
241,0.045726303141242576
242,0.04708371401219651
243,0.048637399781128667
244,0.05020466718634975
245,0.051640351999734595
246,0.05286846890244635
247,0.05388798725153418
248,0.054748920928598024
249,0.05550914390997593
250,0.056195603488949544
251,0.05679049749922594
252,0.057252164195827654
253,0.057553949133030295
254,0.057705601696618876
255,0.05773997834452735
256,0.05768331497856972
257,0.05754686633674795
258,0.057352775833124627
259,0.05716352313631297
260,0.057087784367392966
261,0.057266946630225614
262,0.05785109125017235
263,0.05896911976109251
264,0.06069973383257238
265,0.06304964296302219
266,0.06595133359968124
267,0.06928587982582678
268,0.07290965232612762
269,0.07666039105095292
270,0.08034854468668003
271,0.08376140127376888
272,0.08669354126214952
273,0.08899276451577162
274,0.09059838685584387
275,0.0915447552540222
276,0.09192549430335946
277,0.09184813244725058
278,0.09139919233262675
279,0.09061592510193328
280,0.08947394362930745
281,0.08791024351252226
282,0.0858744595482612
283,0.08337202392041
284,0.08046982189542763
285,0.07727703955128852
286,0.07393274882721339
287,0.07059497653573653
288,0.0674116390957193
289,0.06449263125596445
290,0.06190255438606358
291,0.059656040475805173
292,0.05770719080874983
293,0.0559535770791149
294,0.05426244437543454
295,0.052497297609465456
296,0.050526571189161595
297,0.048223009076896126
298,0.045469316387728484
299,0.04217354349767315
300,0.03828593440163221
301,0.033802908853645425
302,0.028754841677937903
303,0.023193287433144714
304,0.017191302073607796
305,0.010856414537616202
306,0.004348634020106476
307,-0.0021167062895881203
308,-0.008301174629502594
309,-0.013999765082249916
310,-0.01908897811340632
311,-0.02353466846861924
312,-0.027351378184637266
313,-0.03055255013377569
314,-0.03313994183277214
315,-0.035127620704567736
316,-0.036562812728440475
317,-0.037524717959785375
318,-0.038103210523218335
319,-0.038370026290135584
320,-0.03836629189146014
321,-0.038117465788457136
322,-0.037658770074541326
323,-0.0370472599222046
324,-0.03635112136086163
325,-0.03562963593987817
326,-0.034916822334072825
327,-0.03420273763719658
328,-0.03342410727029624
329,-0.03249354292205119
330,-0.03135079558164467
331,-0.02997566332053962
332,-0.02834729062037053
333,-0.026413123978429157
334,-0.02411599067896552
335,-0.021443356487495856
336,-0.018446686258591395
337,-0.015230821545449654
338,-0.011931035771444234
339,-0.008684655445576428
340,-0.005617237556518944
341,-0.0028592493590805386
342,-0.0005675643935451597
343,0.0010798891940995748
344,0.0019125650148868428
345,0.0018004856798888391
346,0.0006773258318530692
347,-0.001451186045361422
348,-0.004503027134298181
349,-0.008317654483335981
350,-0.012662372767773962
351,-0.017250580514049173
352,-0.021784397719130773
353,-0.02601438811403743
354,-0.02977507214823152
355,-0.03297689562284352
356,-0.03557686938792777
357,-0.037558534659384274
358,-0.03892768548858251
359,-0.0397086237863021
360,-0.03993758422044602
361,-0.039658267090645336
362,-0.03891826944328243
363,-0.03777342473976769
364,-0.03630244078159131
365,-0.03461116975196168
366,-0.03281597386913124
367,-0.031026106975494173
368,-0.02933819653099764
369,-0.02783070424801057
370,-0.02655071116624462
371,-0.025504922467367522
372,-0.02466342862036703
373,-0.02396606633449383
374,-0.023323067347344115
375,-0.022614739069304862
376,-0.021694940668283112
377,-0.020402850327988463
378,-0.018581868477778107
379,-0.016089170209703872
380,-0.012781673099186356
381,-0.008487538636527724
382,-0.002987796194832537
383,0.003980379617018651
384,0.01270701835147644
385,0.023490015074956266
386,0.03661955968615922
387,0.05236551214280296
388,0.07096061705337203
389,0.09257854299143196
390,0.11731080072744239
391,0.14515030255810518
392,0.17599207623273144
393,0.20964114085867047
394,0.24580190651740905
395,0.2840543121560741
396,0.3238582034229695
397,0.3646079469221302
398,0.40570960204850076
399,0.4466291078013038
400,0.48687492472546595
401,0.5259287763389601
402,0.5631783671581722
403,0.5978917832010897
404,0.6292361329013275
405,0.6563199250301889
406,0.6782292950098597
407,0.6940322094566822
408,0.7027457586597573
409,0.7032897675314805
410,0.6944715794072679
411,0.6750386795967984
412,0.6437941062241138
413,0.5997418657463581
414,0.5422323244093091
415,0.47109048776282375
416,0.38672701532217696
417,0.29022953057675965
418,0.18340301359149655
419,0.06871822708813277
420,-0.05083621896259522
421,-0.17195412311336855
422,-0.291215573852147
423,-0.40528488687602787
424,-0.5111102699000606
425,-0.6061058165757934
426,-0.6882808890049043
427,-0.7563039162905497
428,-0.8095076536814552
429,-0.8478452546435782
430,-0.8718124596298699
431,-0.8823522620973893
432,-0.8807476630463402
433,-0.8685069708231967
434,-0.847252583151246
435,-0.8186231789282189
436,-0.7841916019043147
437,-0.7453982725541015
438,-0.7035087348791057
439,-0.6596001096799909
440,-0.6145644809868133
441,-0.5691230549553113
442,-0.5238520906042302
443,-0.47920430769262273
444,-0.4355156367957196
445,-0.39302038930395206
446,-0.3518901878738672
447,-0.3122737665873197
448,-0.27431327784443094
449,-0.23814061891581886
450,-0.2038724083773372
451,-0.17161882850056603
452,-0.14150490622967885
453,-0.11368520993776918
454,-0.08833530394678174
455,-0.06561883457785984
456,-0.04563968947651907
457,-0.028396985473478548
458,-0.013769688731220156
459,-0.0015511632191076014
460,0.008485053215417562
461,0.016542595971442184
462,0.022804441577048445
463,0.027441307398053005
464,0.030598406268902104
465,0.03238025722408817
466,0.032856426710745935
467,0.03208737624085244
468,0.03015671557037312
469,0.027197261584561584
470,0.02340536766781283
471,0.019038639192274987
472,0.014394156928731288
473,0.009783289436759648
474,0.005517732164845482
475,0.0018875768432426597
476,-0.000884498585859887
477,-0.0026876895719160593
478,-0.003529621522014989
479,-0.0034953883376510906
480,-0.0026816706590008297
481,-0.00114557234996305
482,0.0010989058185537732
483,0.004040461904863626
484,0.007628728138845894
485,0.011767109114862772
486,0.016332383234071816
487,0.021191718503696184
488,0.02620582016722037
489,0.03121781514271217
490,0.03602800492558989
491,0.04038351406475794
492,0.04402397714643805
493,0.04676583836749408
494,0.048555898870056645
495,0.04945684200335823
496,0.049589319371640184
497,0.04907354367179412
498,0.04799549030951564
499,0.046411923625690424
500,0.04439507569231131
501,0.042078744698688095
502,0.039658084468007164
503,0.037341991928835055
504,0.03529522444295867
505,0.03360252840859178
506,0.03226510799941289
507,0.031220845243014675
508,0.030371858245468425
509,0.02961426880929609
510,0.028866906714757494
511,0.02807861152022541
512,0.0272072942962988
513,0.026201461651110862
514,0.02501167816951162
515,0.023618680515162027
516,0.022048006156087683
517,0.020360888931817988
518,0.018637002944209304
519,0.016970028148265807
520,0.015471405944856974
521,0.014258567127636646
522,0.013424935518142705
523,0.013013759033726901
524,0.013016306414047408
525,0.013396768852480917
526,0.014122764774399221
527,0.015181624187986539
528,0.016586942535803496
529,0.01838194346161314
530,0.02063001435862196
531,0.023383258270126103
532,0.02663905872480908
533,0.030305225324426754
534,0.03419265641102839
535,0.03805223403362766
536,0.04164117377239174
537,0.04476463462021646
538,0.047269106318178884
539,0.04903089668627228
540,0.04998117826569511
541,0.05014783827930707
542,0.04966926241090025
543,0.048766572504901656
544,0.04769008440136069
545,0.04666144342407616
546,0.04583054902456595
547,0.04525755730443059
548,0.044919456277843973
549,0.04473035913096151
550,0.04456087895528115
551,0.044259439160580984
552,0.04368697819492887
553,0.042749185825194484
554,0.041401448495914824
555,0.039641220750610516
556,0.03751888570828505
557,0.035158201118160336
558,0.03275802451360797
559,0.030573686233014482
560,0.02888038397056613
561,0.02791256953694159
562,0.02780134787762027
563,0.028550321587933972
564,0.03007066167042277
565,0.03225615205479263
566,0.035040013925395117
567,0.03839893602320979
568,0.04232989959972851
569,0.04682373478505278
570,0.0518337373541449
571,0.057253468547875254
572,0.06291878961368233
573,0.06861663681432516
574,0.0740913877814714
575,0.07907457139313213
576,0.08333600397100818
577,0.08670930341144431
578,0.08907510687126995
579,0.09033445466553382
580,0.09039851770751087
581,0.08919345262149345
582,0.08667588861931597
583,0.08286031050629085
584,0.0778486993619022
585,0.07184678244321584
586,0.06515935455971408
587,0.05816199628518094
588,0.05126296867587285
589,0.04487914935914629
590,0.0394181373342449
591,0.035241047681768785
592,0.03262476983175774
593,0.03176301719651922
594,0.032778877343166944
595,0.035690336066164875
596,0.04035535443166124
597,0.04647212326219798
598,0.05363278882032459
599,0.06136723300090479
600,0.06916113470798116
601,0.07648948993056823
602,0.08287837206189434
603,0.08795733585258453
604,0.09147834015565745
605,0.09331962656471345
606,0.09349299950372171
607,0.09214306919266574
608,0.08953119932495512
609,0.08601697074271969
610,0.08203723069867543
611,0.07806806988057219
612,0.07456797737959454
613,0.07192551193280183
614,0.07043285677522224
615,0.07027068620599085
616,0.07148717093149647
617,0.0739916294519299
618,0.07758074813663776
619,0.0819750830882311
620,0.08684533049773738
621,0.09184416684617909
622,0.09665337652877833
623,0.10101910758980279
624,0.10474983451612327
625,0.10769044874449073
626,0.1097090878689183
627,0.11070711974399143
628,0.11062588179728323
629,0.10943860718693878
630,0.10714422245038421
631,0.10377001259468832
632,0.09938179983662819
633,0.09410663806914854
634,0.08816343610782575
635,0.08187842780176764
636,0.0756569131833912
637,0.0699087324886543
638,0.06496752371756485
639,0.06104180932483224
640,0.058193439119466756
641,0.056330004185923696
642,0.055219320270681785
643,0.0545296623915563
644,0.05388348617943839
645,0.05291602057393542
646,0.05132678681048424
647,0.0488946776971933
648,0.045447339975173355
649,0.04082512431311082
650,0.03488385289197793
651,0.02753695668638955
652,0.018799104756901903
653,0.00879704263639578
654,-0.0022421515146560846
655,-0.01399635344837977
656,-0.026051065109738987
657,-0.03792204244004083
658,-0.04910591025870904
659,-0.05915561390194812
660,-0.06776152816523563
661,-0.07479763374330432
662,-0.08031319204654642
663,-0.08449276153716119
664,-0.08760882708992189
665,-0.08997512344276008
666,-0.09190796726311143
667,-0.09370085807660236
668,-0.09560935539217374
669,-0.09784117204899136
670,-0.10054748856977956
671,-0.10381158574188916
672,-0.10764082540352142
673,-0.11196868404591089
674,-0.11666036926015412
675,-0.12152843442057236
676,-0.12637695917970418
677,-0.13106081706704428
678,-0.13551680794846258
679,-0.1397382918629373
680,-0.14370961383925596
681,-0.14735426253259734
682,-0.15053788321331968
683,-0.15311634067923482
684,-0.15498837139063656
685,-0.1561218080623757
686,-0.15654924134305412
687,-0.15634649481753074
688,-0.15561250037527036
689,-0.154464651271396
690,-0.15304614038389677
691,-0.15152815795513114
692,-0.15009449624081878
693,-0.14891723623673264
694,-0.14814639965766432
695,-0.14791567272480455
696,-0.14833934277695532
697,-0.1494863027748919
698,-0.15135141172260919
699,-0.1538510359356769
700,-0.15684139937728736
701,-0.16014471163654312
702,-0.1635745409876771
703,-0.16695234915801077
704,-0.17011072818660591
705,-0.1728868810635856
706,-0.1751158957357687
707,-0.1766413139065597
708,-0.17734628550686668
709,-0.17718008007105415
710,-0.1761578177985564
711,-0.17433265370446585
712,-0.17175789282234147
713,-0.16847265041267948
714,-0.1645297854272171
715,-0.16004140483418153
716,-0.15519746352729755
717,-0.15023732602979809
718,-0.14539106854408776
719,-0.14082313402064156
720,-0.136604444276132
721,-0.13271795699535546
722,-0.12908026475529716
723,-0.12556902384536514
724,-0.12206786674949256
725,-0.11852141699894785
726,-0.11496423096706754
727,-0.11151203991361551
728,-0.10833403930192938
729,-0.10561673196923324
730,-0.10352437960160005
731,-0.10216596311147462
732,-0.10157345010629022
733,-0.10169309350937372
734,-0.10239494271451526
735,-0.10350321730991678
736,-0.1048345151849016
737,-0.10622058115338083
738,-0.10750501950317333
739,-0.10853163604192125
740,-0.10915973827040695
741,-0.1093128523761103
742,-0.10902004667146127
743,-0.10840716365897421
744,-0.10763964699357259
745,-0.10685997141706621
746,-0.10615439640556475
747,-0.10554409489632875
748,-0.10498736741294512
749,-0.10439327101759825
750,-0.10363474519515435
751,-0.10254818002188122
752,-0.10094027988840225
753,-0.09862324350680317
754,-0.0954601541196549
755,-0.09139394528340139
756,-0.08645810271267393
757,-0.08078092767606262
758,-0.07458594346232614
759,-0.0681726194535011
760,-0.061868145027116635
761,-0.05597739754925217
762,-0.05075924963430508
763,-0.04641584044195224
764,-0.04307518051206677
765,-0.040780518330674906
766,-0.039502793340332534
767,-0.03916028819363293
768,-0.03962554439859233
769,-0.04072575507945842
770,-0.04224503138014898
771,-0.04392914427247054
772,-0.04550447800177565
773,-0.04671689523837189
774,-0.047369564131405195
775,-0.047341612056365896
776,-0.046589350734197364
777,-0.04512909547682246
778,-0.04300397261893763
779,-0.04025648356515866
780,-0.03692733993017355
781,-0.03307887054190424
782,-0.028817937395349706
783,-0.024293830726997093
784,-0.019677704481840485
785,-0.01514443471759223
786,-0.010860762843259713
787,-0.006974531939394898
788,-0.0036035246946848156
789,-0.0008271606370850248
790,0.001315775858487823
791,0.0028341772967648694
792,0.0038025829659853777
793,0.004364920745278992
794,0.004700818394496544
795,0.0049751433430395495
796,0.005310456987587875
797,0.0057843229225284
798,0.00642456930196879
799,0.0072049192864818735
800,0.008067069162096317
801,0.008968313171286562
802,0.009923652178980672
803,0.01101180232314575
804,0.01233545110137709
805,0.013958727600968546
806,0.015863011281940512
807,0.01793934396494199
808,0.020007915320767632
809,0.021856000207369653
810,0.023278609164864055
811,0.024091631388700727
812,0.02412260708360665
813,0.02322875204972426
814,0.02135957865637857
815,0.018618732539448766
816,0.015275240221679932
817,0.011713261700591277
818,0.008338756054671404
819,0.005475610131391714
820,0.0032937993228985404
821,0.0018050384995711049
822,0.0009246765894489393
823,0.0005555866847100026
824,0.0006435532621444339
825,0.0011878939725534958
826,0.002224202472475375
827,0.0038005420173321948
828,0.005954128001742157
829,0.008687650249576944
830,0.011942521974731994
831,0.01556438442857226
832,0.019278184129696112
833,0.02271587379624667
834,0.025509719389699963
835,0.027402065435400632
836,0.028306434045209338
837,0.028295311975272828
838,0.027537134182962737
839,0.026226422357937464
840,0.024546649956111683
841,0.022675708183195666
842,0.02080117673100057
843,0.019109024856724437
844,0.01775287449704883
845,0.0168337831167898
846,0.016401295101684282
847,0.016465155413688263
848,0.017005312783482843
849,0.01797483999816316
850,0.019298074063195392
851,0.020877265898870925
852,0.022614376458828668
853,0.024432344351711197
854,0.02628400345697926
855,0.028153636315790185
856,0.030048526580359898
857,0.0319740575938873
858,0.03390482163932912
859,0.0357725019395429
860,0.03747995365837665
861,0.038932651554786736
862,0.04006777968826951
863,0.040867041519834585
864,0.04134980302438697
865,0.04155330364872727
866,0.04151140850506726
867,0.04124124853590277
868,0.040748580954756954
869,0.040057824276446406
870,0.039255245314978954
871,0.03851196961115196
872,0.03805090964837057
873,0.03806602769204915
874,0.03864734659086527
875,0.039758544924300865
876,0.04127383156093422
877,0.04303513790200984
878,0.04488599226789356
879,0.04667757105147999
880,0.04826012438489985
881,0.049470517968950814
882,0.0501306294318747
883,0.050066939426979575
884,0.04914700899490264
885,0.04731273338314943
886,0.044595617964887375
887,0.04112873315419685
888,0.03716385606189493
889,0.03305722353503325
890,0.02919601849602821
891,0.025905427972226124
892,0.023400452706344315
893,0.02179997726956864
894,0.02116846017298392
895,0.021548434833592027
896,0.022977901224064214
897,0.025487615158872472
898,0.029067350050598233
899,0.033624449643424315
900,0.03896929824983717
901,0.044830865086342694
902,0.05089183989585017
903,0.05683582860814001
904,0.062397116857466
905,0.067401051472904
906,0.07177851549124828
907,0.07554371866741302
908,0.07874907871484225
909,0.08144309840994254
910,0.08364959300125176
911,0.08538006616322964
912,0.08667013502217351
913,0.08760413111057859
914,0.08830079496013878
915,0.08887223542896426
916,0.08939766745427728
917,0.08993333173374271
918,0.09052753786618274
919,0.09120455383922313
920,0.09193101356898559
921,0.09260270415496041
922,0.09306507352521448
923,0.09315180627337481
924,0.09271691009698738
925,0.09164902078866538
926,0.089874823505182
927,0.08736574973639445
928,0.0841576292214308
929,0.08036886935780393
930,0.0761886029222421
931,0.0718288855327695
932,0.06745700300970194
933,0.06313183661494597
934,0.05877620343499179
935,0.054215302950463964
936,0.049278138909783165
937,0.04389937431502455
938,0.038152519567148095
939,0.03221807075498642
940,0.026340789578117557
941,0.02080486550855931
942,0.015912309171386436
943,0.01194675900706842
944,0.009124712226840859
945,0.0075482815685340215
946,0.007185160151491041
947,0.007892944437391336
948,0.009470665654691573
949,0.011707093215555573
950,0.0144075628303212
951,0.017395663741618918
952,0.020503640640899663
953,0.02357082908923462
954,0.026454478670893348
955,0.029048519041400364
956,0.031309273261519624
957,0.033280086084059635
958,0.03509401202989584
959,0.0369403033739656
960,0.03900799929469599
961,0.04144191510790873
962,0.04433363480960829
963,0.04773782930999717
964,0.051689035971127256
965,0.05620187409589419
966,0.06125692754745134
967,0.06678418027351105
968,0.07264962495191607
969,0.0786486015037078
970,0.08451741098253036
971,0.08997623252700744
972,0.09479330455256749
973,0.09883050262058157
974,0.10204191801382721
975,0.10444420869736801
976,0.10609927624602847
977,0.10712030685465772
978,0.10767460789250946
979,0.1079588298201735
980,0.10815166364022562
981,0.10837324249023438
982,0.10867912652809902
983,0.10908093450663628
984,0.10956016154348791
985,0.1100671127742835
986,0.11052244647671769
987,0.11082603452605086
988,0.11087181823184802
989,0.11057902627078801
990,0.10994088610568319
991,0.10906381302654872
992,0.10815269173752354
993,0.10742992293188817
994,0.10704459695372463
995,0.10703809671670435
996,0.1073663136866995
997,0.10793278594565352
998,0.10861174089802056
999,0.10927197289799882
1000,0.10980087066170803
1001,0.11012340591628236
1002,0.11022268102726689
1003,0.11015120019093996
1004,0.11001264080970288
1005,0.10992398602169424
1006,0.1099833403660956
1007,0.11025164757917155
1008,0.11075072362255214
1009,0.11148440212888282
1010,0.11246460142111403
1011,0.11370884347152885
1012,0.11522096749603424
1013,0.11699280895198448
1014,0.11902819658336497
1015,0.1213779135436456
1016,0.12418779850510087
1017,0.1277386943197769
1018,0.13243707255227122
1019,0.13875094636164956
1020,0.1471303759629234
1021,0.15794977894382695
1022,0.17148094351929302
1023,0.1878975562305684
1024,0.2073114565882441
1025,0.22981748367697774
1026,0.2555124640420766
1027,0.28447709458481907
1028,0.3167273242886276
1029,0.35214658765424733
1030,0.39041952417555237
1031,0.430998602709284
1032,0.4731385126913425
1033,0.5159973375836494
1034,0.5587459460206596
1035,0.60062934405386
1036,0.640969402783371
1037,0.6791273548278527
1038,0.7144684214554528
1039,0.7463605651287792
1040,0.774180323747026
1041,0.7972878994275976
1042,0.8149865902043663
1043,0.8264999889394665
1044,0.8309627713391377
1045,0.8273958905826924
1046,0.8146798259589739
1047,0.791594914595122
1048,0.7569549959218277
1049,0.7097736947312067
1050,0.6494116708966343
1051,0.5757144483127777
1052,0.48914297124006384
1053,0.39085620749933586
1054,0.2827075264055148
1055,0.16714970508482843
1056,0.04707547699263411
1057,-0.07436534699439452
1058,-0.19394584774288395
1059,-0.30853237644910275
1060,-0.4152450048696792
1061,-0.51160726478625
1062,-0.5956789843081173
1063,-0.6661523538298866
1064,-0.7223810847065179
1065,-0.7643280309802508
1066,-0.7924522431485941
1067,-0.807577080757662
1068,-0.8107744899167464
1069,-0.8032854031683792
1070,-0.7864729436234262
1071,-0.7617814105244103
1072,-0.7306818481506349
1073,-0.6946066836080127
1074,-0.6548832789110565
1075,-0.6126876254535952
1076,-0.5690408997642495
1077,-0.524834692416405
1078,-0.4808413509202097
1079,-0.43769451406890386
1080,-0.39586795671609176
1081,-0.3556774146898129
1082,-0.3173046583000268
1083,-0.2808328399274174
1084,-0.24627947912368406
1085,-0.21362062297968143
1086,-0.18281172271343524
1087,-0.15380756256455294
1088,-0.12657949000341312
1089,-0.10113299367369122
1090,-0.07752197413983447
1091,-0.05584594960927789
1092,-0.0362217924685135
1093,-0.018738144279257154
1094,-0.0034246291371254766
1095,0.009734625052164521
1096,0.020763997870657365
1097,0.029678777750770054
1098,0.036491190790639304
1099,0.04123107222701612
1100,0.043989161256871835
1101,0.04496518157908126
1102,0.044477309682962596
1103,0.042927541688776494
1104,0.04075060987690207
1105,0.038360405782253616
1106,0.03610614091409386
1107,0.03425129108582248
1108,0.03296333144381351
1109,0.03230550112432253
1110,0.032243692879626515
1111,0.032664036379427414
1112,0.03338583504340826
1113,0.03418592756741445
1114,0.034850436047819004
1115,0.03522616266518934
1116,0.035233084365640446
1117,0.034830991291713916
1118,0.03397417251104783
1119,0.032603483616114086
1120,0.03068316921159299
1121,0.028242993609930094
1122,0.02539223331751852
1123,0.02230067155478905
1124,0.019160350244392155
1125,0.016147162534768646
1126,0.01339387473749518
1127,0.010976281145537777
1128,0.0089156502395885
1129,0.007199966711809727
1130,0.005810342675315459
1131,0.004737903889745387
1132,0.003992540355012009
1133,0.003605105164937954
1134,0.0036195717217739455
1135,0.004074416526037728
1136,0.004975413343983597
1137,0.006274825000163252
1138,0.007877955145277222
1139,0.00967024464899477
1140,0.0115388045470696
1141,0.013381107877010525
1142,0.015108845381021573
1143,0.016650125659746433
1144,0.017948732894002423
1145,0.018963236756554053
1146,0.019674074206932308
1147,0.020097862466973707
1148,0.020294733725065947
1149,0.020359885990670637
1150,0.020403780477891934
1151,0.020529501893956584
1152,0.02081225603488197
1153,0.021278817767779203
1154,0.021889577149666956
1155,0.022539232512410957
1156,0.023083574216153487
1157,0.02337758055302702
1158,0.023301663269691634
1159,0.02276384259843269
1160,0.021692683304139253
1161,0.02004861814330972
1162,0.017857373081344687
1163,0.015236542299076672
1164,0.012381730021676427
1165,0.009513938061382274
1166,0.0068302613736723914
1167,0.00449205741690036
1168,0.0026379083867747104
1169,0.0013884083764063022
1170,0.0008322893847931812
1171,0.0010017842934946753
1172,0.0018498679659147066
1173,0.0032463019771378863
1174,0.004999517930467677
1175,0.006892147549705613
1176,0.008711275963090482
1177,0.010267554547388924
1178,0.011410839169719796
1179,0.012042718490962057
1180,0.012124530974335909
1181,0.011691139461353866
1182,0.010868257067448053
1183,0.009875037336240415
1184,0.00899490132995826
1185,0.008494946805000483
1186,0.008516289592427402
1187,0.009020591057138636
1188,0.009827695986982405
1189,0.010685541695837412
1190,0.011331262414956718
1191,0.011558555043387375
1192,0.011288070833143983
1193,0.01059439981748125
1194,0.009661671808696353
1195,0.008700056352430693
1196,0.00787798803752462
1197,0.0072948839465185565
1198,0.006980450319042339
1199,0.006899530325046836
1200,0.006965130245387568
1201,0.007070397503759721
1202,0.007127835040431687
1203,0.007091087939654961
1204,0.006950237611488571
1205,0.006713999501141481
1206,0.006397838866405264
1207,0.006024829194225221
1208,0.005634810225053789
1209,0.005292411220553347
1210,0.0050817101266092965
1211,0.005085692734731503
1212,0.005366108156841843
1213,0.005958051594877779
1214,0.0068792531961245846
1215,0.00814459875871737
1216,0.009771609643968532
1217,0.011770047840102143
1218,0.014120277765228062
1219,0.01674815368194474
1220,0.019515665066882477
1221,0.02224224838406969
1222,0.0247366849559734
1223,0.026813447395103083
1224,0.028299021921874723
1225,0.02904972647378269
1226,0.02898748487271612
1227,0.028135272522870212
1228,0.026623534435063212
1229,0.024655196619599428
1230,0.022451456028356742
1231,0.020215083184094252
1232,0.018120777279098572
1233,0.0163156120261833
1234,0.014919356150354966
1235,0.01402403664752487
1236,0.013690054435309214
1237,0.013943773324872129
1238,0.014785768065313103
1239,0.016203641166940886
1240,0.018176048946113844
1241,0.020665717450217492
1242,0.02360824134442831
1243,0.026905297409691532
1244,0.030428488932157324
1245,0.034034518349544615
1246,0.037585465208330705
1247,0.040959895620367774
1248,0.044045232780211684
1249,0.04672460956201727
1250,0.04888060505969131
1251,0.05041532503127719
1252,0.05126927303642521
1253,0.05143195533345035
1254,0.05094178594371365
1255,0.04987027355619385
1256,0.048300681689014614
1257,0.04632113130726284
1258,0.044031465715454944
1259,0.04154238837751574
1260,0.03896033253951368
1261,0.03637605505771688
1262,0.03386514661665632
1263,0.03148975116922806
1264,0.029294703323665728
1265,0.027298051059767216
1266,0.025483231262378187
1267,0.023806507503576133
1268,0.022217823082450735
1269,0.020675256356212136
1270,0.01914066796745372
1271,0.017563602160392294
1272,0.015870544713352867
1273,0.013976774697786559
1274,0.0118211836188679
1275,0.009398455847173083
1276,0.006767915258907969
1277,0.00404187317122247
1278,0.0013595621533929161
1279,-0.0011474924381286026
1280,-0.003381642600452847
1281,-0.005281161232293439
1282,-0.0068070790318460975
1283,-0.007947023364927662
1284,-0.008746679608469513
1285,-0.009322838799378437
1286,-0.009822220210312435
1287,-0.010370932373788786
1288,-0.011064831827353183
1289,-0.011979029707255135
1290,-0.013164860807727078
1291,-0.01465608765020053
1292,-0.016514761585551485
1293,-0.018894390486478115
1294,-0.022065350476532714
1295,-0.026370434602992657
1296,-0.03212416582256217
1297,-0.03951069152368877
1298,-0.04853991193711308
1299,-0.05907105516969338
1300,-0.07085929235004955
1301,-0.08358825836068216
1302,-0.09688990172306625
1303,-0.11036202269266783
1304,-0.1235868157486776
1305,-0.13615052851127096
1306,-0.14765693652644032
1307,-0.1577343641894088
1308,-0.16605367555707426
1309,-0.17236159428280473
1310,-0.1765057751795753
1311,-0.17843950980246573
1312,-0.17823087774726712
1313,-0.17609523301898747
1314,-0.17242139472939413
1315,-0.1677531867294783
1316,-0.1627265124392024
1317,-0.15798261588834014
1318,-0.1540806911898381
1319,-0.15143028153069515
1320,-0.1502495172719826
1321,-0.1505539806480199
1322,-0.1521829434537808
1323,-0.15485127202493018
1324,-0.15820544731471997
1325,-0.16187464739189106
1326,-0.16551665403470475
1327,-0.16885324797961673
1328,-0.17168906012951796
1329,-0.17391385637743376
1330,-0.17548464614569395
1331,-0.1763909346723026
1332,-0.17663268920819944
1333,-0.1762308500617142
1334,-0.17524451156679127
1335,-0.17375873442490222
1336,-0.17184039225006056
1337,-0.1694977487314468
1338,-0.1666846606858609
1339,-0.16334294173662378
1340,-0.1594432584653194
1341,-0.1550156904276494
1342,-0.15018370739099815
1343,-0.14518501209420964
1344,-0.14034235742549309
1345,-0.135987073293877
1346,-0.13238187978787894
1347,-0.12967585313616156
1348,-0.12789801529407602
1349,-0.12698387593517554
1350,-0.12680686450900625
1351,-0.12719249655160003
1352,-0.12793410103877495
1353,-0.1288337250919741
1354,-0.12975020685512542
1355,-0.1306128049932339
1356,-0.13139271393670116
1357,-0.13206634728750033
1358,-0.13259022868633635
1359,-0.13288259862809254
1360,-0.13282422048300324
1361,-0.13229199935429972
1362,-0.13119467711394653
1363,-0.12947424511280714
1364,-0.12708752225869038
1365,-0.12399613258979139
1366,-0.12016536353229285
1367,-0.1155780876983256
1368,-0.11028181848509358
1369,-0.10445472033763614
1370,-0.09844907767446993
1371,-0.09277924178700189
1372,-0.08803892762244205
1373,-0.08475969785946243
1374,-0.08326558668938158
1375,-0.08359559283326227
1376,-0.08551866288918801
1377,-0.08861310830792743
1378,-0.09237482739416575
1379,-0.09631767552677621
1380,-0.10002724959980587
1381,-0.10316100893155673
1382,-0.10543225989521171
1383,-0.106609375806135
1384,-0.10651972966129511
1385,-0.10505036219670494
1386,-0.1021573719640353
1387,-0.09787116199484713
1388,-0.09227260876869585
1389,-0.08545738594833403
1390,-0.07753232097300283
1391,-0.0686555342832672
1392,-0.05909186556197263
1393,-0.0492462594863379
1394,-0.0396471729469295
1395,-0.03088079098349041
1396,-0.02351221374243606
1397,-0.018022690295795857
1398,-0.01476135913683052
1399,-0.013913416238600953
1400,-0.015498059726993476
1401,-0.019392330654555926
1402,-0.025357507011206
1403,-0.03305001620520853
1404,-0.04202504717226737
1405,-0.05175477659429995
1406,-0.061662647057779144
1407,-0.07115755738691867
1408,-0.07966482458257729
1409,-0.08666312333224369
1410,-0.09172763627290346
1411,-0.0945705327799755
1412,-0.09507710521991347
1413,-0.09333528727441506
1414,-0.08964356756822592
1415,-0.08449322676828273
1416,-0.07852631532437356
1417,-0.07245477280407657
1418,-0.06694775074113456
1419,-0.0625226165142326
1420,-0.05946208219624506
1421,-0.057775088158792814
1422,-0.057217591269365944
1423,-0.05735749324513248
1424,-0.05766135201608376
1425,-0.05761013548005732
1426,-0.05683125731842193
1427,-0.055181110659003586
1428,-0.05273453897982887
1429,-0.049703122687876744
1430,-0.04632868190306486
1431,-0.04280457547433477
1432,-0.039263388433663796
1433,-0.03581405796475565
1434,-0.0325773011947581
1435,-0.029695480558437973
1436,-0.02732772503807843
1437,-0.02563453952415931
1438,-0.02474013664553312
1439,-0.024683460940985842
1440,-0.02539808141002311
1441,-0.02673919742191533
1442,-0.028532935399342103
1443,-0.030616215621645067
1444,-0.03285700342733759
1445,-0.03516201628430689
1446,-0.03748113072182968
1447,-0.039808409049733845
1448,-0.04216619181081202
1449,-0.044563840779586715
1450,-0.04695097748604791
1451,-0.04919472106387606
1452,-0.05108815162871673
1453,-0.0523826712359613
1454,-0.05284090001099176
1455,-0.05229525054905312
1456,-0.05068285710074848
1457,-0.04804774489705002
1458,-0.044523585847744615
1459,-0.040311059534951364
1460,-0.035659851352191324
1461,-0.030852519454247645
1462,-0.026181685202484373
1463,-0.021922746958359943
1464,-0.01830623049841715
1465,-0.015494397721172589
1466,-0.013569373167173212
1467,-0.012526283856256334
1468,-0.01226160888970724
1469,-0.012578535922247757
1470,-0.013246596184055636
1471,-0.014100688314263329
1472,-0.015104822391049412
1473,-0.01633322961010456
1474,-0.01790164137287803
1475,-0.019909521294609978
1476,-0.022416843378210257
1477,-0.025438985004796143
1478,-0.028932981575661258
1479,-0.03276501247593421
1480,-0.03668327919122412
1481,-0.040338420232969116
1482,-0.04336183403125263
1483,-0.04545398670792329
1484,-0.04641882632449524
1485,-0.046139917614947956
1486,-0.044552856804897345
1487,-0.041648686875693154
1488,-0.03749666555861571
1489,-0.03226594154663155
1490,-0.026233191199630433
1491,-0.019766304029980353
1492,-0.01328455977021902
1493,-0.007208501982765297
1494,-0.0019174176211021155
1495,0.002268860962877648
1496,0.005088651555214957
1497,0.0063437704269261475
1498,0.005917756085287266
1499,0.0037948376148883014
1500,8.570929439358177e-05
1501,-0.004939293662956517
1502,-0.010846589262744052
1503,-0.017088176084134325
1504,-0.02307309839124444
1505,-0.02822919007708556
1506,-0.03205271514488306
1507,-0.034155072330274
1508,-0.034310660029286635
1509,-0.032495320056887614
1510,-0.028898760688415993
1511,-0.023903980489690366
1512,-0.01803522388142377
1513,-0.011885335598329171
1514,-0.006044662464933655
1515,-0.001051952731029148
1516,0.0026308848100358006
1517,0.0046416460224953295
1518,0.004757147214815605
1519,0.0029309115745137218
1520,-0.0007035668392467853
1521,-0.005868128842528374
1522,-0.012198716101009609
1523,-0.019306841966029668
1524,-0.026809948316343448
1525,-0.03431606835531749
1526,-0.0413990190030778
1527,-0.047611287718877036
1528,-0.05253924832793829
1529,-0.05586425886472802
1530,-0.057395029724962576
1531,-0.05707087330425255
1532,-0.05495721706812673
1533,-0.05124537775616188
1534,-0.04624753113613199
1535,-0.04036569122722081
1536,-0.03402329538096033
1537,-0.027580534552412352
1538,-0.021278468737134976
1539,-0.01523732259940835
1540,-0.009491359867984911
1541,-0.004022719449436396
1542,0.0012291108169988003
1543,0.006376679065838964
1544,0.01158994146629694
1545,0.01707927383991815
1546,0.023059284811809275
1547,0.02971312426736136
1548,0.03715780300511153
1549,0.045388743083761264
1550,0.054217007676994944
1551,0.06325718800125713
1552,0.07199096131677944
1553,0.07986580143894122
1554,0.08638321386244203
1555,0.09116134044817924
1556,0.0939615109656285
1557,0.0946690746794631
1558,0.09324804595552291
1559,0.08971470676763203
1560,0.08415108225655331
1561,0.07673325951034629
1562,0.06774653612241788
1563,0.057576463149352414
1564,0.046665750694331494
1565,0.03545301652846759
1566,0.024337735948166305
1567,0.013682152432577482
1568,0.0038188039041946427
1569,-0.004962321933124939
1570,-0.012448487848941177
1571,-0.018537276975252932
1572,-0.023238893381944695
1573,-0.02664977626195404
1574,-0.02892927607664315
1575,-0.030299555628875593
1576,-0.03104449808568104
1577,-0.031464739733110855
1578,-0.03180152086745289
1579,-0.03219594254395726
1580,-0.032713222555953075
1581,-0.033398277576552074
1582,-0.0343171216068187
1583,-0.035561149430438796
1584,-0.03722124651230315
1585,-0.039355197242345166
1586,-0.04196514308599952
1587,-0.04499113985572313
1588,-0.04832051192167829
1589,-0.05180231075905835
1590,-0.05525312438562809
1591,-0.05845540444199164
1592,-0.06116396754480035
1593,-0.06313220074698377
1594,-0.06415279689390956
1595,-0.06410241669471393
1596,-0.06298117717478931
1597,-0.06092818046543662
1598,-0.058198152536407546
1599,-0.055107456432877906
1600,-0.05197325953828658
1601,-0.049071649502999075
1602,-0.046625706963404456
1603,-0.04480911247175878
1604,-0.0437448437495957
1605,-0.04349481347818836
1606,-0.04404925597229586
1607,-0.045330734249499856
1608,-0.0472139358622381
1609,-0.04953720148927775
1610,-0.052102402060976
1611,-0.054690321716952386
1612,-0.05709240406522853
1613,-0.059129449998405734
1614,-0.06064368963076563
1615,-0.061486695678200816
1616,-0.06153266373967503
1617,-0.06070947971290749
1618,-0.059017542144008395
1619,-0.0565242358634667
1620,-0.05334190563435046
1621,-0.04960699194350909
1622,-0.04547397389072658
1623,-0.041121047610427175
1624,-0.036753281884783995
1625,-0.032588313139382
1626,-0.028821151049129957
1627,-0.02558566835939475
1628,-0.022934409061430454
1629,-0.020837489565862986
1630,-0.019192416868213876
1631,-0.017847667635736784
1632,-0.016645210100179962
1633,-0.015475205507034977
1634,-0.014318571883994982
1635,-0.013252199923527615
1636,-0.012417246129988204
1637,-0.011968935546367174
1638,-0.012027082142680515
1639,-0.012649976811856091
1640,-0.013847701311312561
1641,-0.015618473531695928
1642,-0.017962452900562812
1643,-0.020849995489806566
1644,-0.024177177686619693
1645,-0.027750993274969684
1646,-0.031309494825259195
1647,-0.03456408309212117
1648,-0.03724946447830663
1649,-0.039156855891326524
1650,-0.040135925532196186
1651,-0.040079017710823776
1652,-0.03890421303547481
1653,-0.036539754831244366
1654,-0.03290521899638459
1655,-0.02788033764586997
1656,-0.021269709749309414
1657,-0.012799700863716007
1658,-0.0021617169986818383
1659,0.010931190547078948
1660,0.026706403069836415
1661,0.04531751297675064
1662,0.06684700329679777
1663,0.09131694450963421
1664,0.118704383886157
1665,0.14895566643800326
1666,0.18198628871088102
1667,0.21766247190104682
1668,0.2557698149639411
1669,0.29598245017707653
1670,0.33785157922131226
1671,0.3808124733814088
1672,0.4242080322754604
1673,0.46734825555496967
1674,0.5095942559786212
1675,0.5504124357544206
1676,0.589364705349746
1677,0.6260454822663603
1678,0.6599997356548623
1679,0.6906593972299008
1680,0.7173211977777546
1681,0.7391572285644499
1682,0.7552260935728412
1683,0.7644688850784329
1684,0.7657023301543097
1685,0.7576380592159271
1686,0.7389612407005218
1687,0.7084631597612843
1688,0.6651825923165754
1689,0.6085337455045791
1690,0.5384233592418414
1691,0.45534236865165983
1692,0.3604074499993722
1693,0.25534159625380387
1694,0.1423994843898439
1695,0.024251435594672917
1696,-0.09615344882529865
1697,-0.2157207532747837
1698,-0.33133985709495667
1699,-0.44003049332221145
1700,-0.5391067105550034
1701,-0.6263263525056216
1702,-0.7000055866036944
1703,-0.7591038698624815
1704,-0.8032652201858164
1705,-0.832780196117921
1706,-0.8484782932861782
1707,-0.8516018489092974
1708,-0.8436755066074318
1709,-0.8263501353082787
1710,-0.8012407282029391
1711,-0.7698214782543513
1712,-0.733406660949068
1713,-0.6931805809913087
1714,-0.6502269328076261
1715,-0.6055378835417908
1716,-0.560006244398428
1717,-0.5144089663959365
1718,-0.4693867353902901
1719,-0.42543083724428965
1720,-0.3828992796414099
1721,-0.3420673890220018
1722,-0.30318497572743575
1723,-0.26650104956834797
1724,-0.23224272818180322
1725,-0.20057668721390182
1726,-0.17159163639584188
1727,-0.14531040708630555
1728,-0.12170976395246899
1729,-0.10072579842003977
1730,-0.08224869306231963
1731,-0.06612445897649726
1732,-0.05216731853828415
1733,-0.040173677473154444
1734,-0.029931386114171708
1735,-0.021232206244417576
1736,-0.013901055892660087
1737,-0.007824318545934905
1738,-0.0029343634358979707
1739,0.0008563560288798237
1740,0.003725588302682161
1741,0.005957347564941179
1742,0.007877548202639133
1743,0.009751106769591095
1744,0.011725654971325356
1745,0.013852853264001914
1746,0.01613068438941673
1747,0.018515788800253005
1748,0.020925824268985975
1749,0.02326526302057247
1750,0.02546040453278725
1751,0.02747387248122028
1752,0.02930034651037047
1753,0.030959422637085694
1754,0.0324857147515091
1755,0.03391072564920963
1756,0.03524504010537764
1757,0.03647605290984654
1758,0.03758350981190345
1759,0.03856087233487922
1760,0.039427625321909576
1761,0.040222046913321007
1762,0.040979059774748895
1763,0.041718799531291866
1764,0.042465283836027636
1765,0.043274883544115864
1766,0.04423355851730094
1767,0.045414062533602285
1768,0.04683077072640411
1769,0.04843401812324726
1770,0.05014824895718699
1771,0.05192239425491241
1772,0.05376051439907822
1773,0.05572960831799816
1774,0.057950933300148985
1775,0.06056826456056415
1776,0.06369783771209002
1777,0.06738289485857785
1778,0.07156662862156017
1779,0.0760840296944034
1780,0.08067794165485094
1781,0.08504925369383855
1782,0.08892649126156853
1783,0.09211163872718411
1784,0.09447952554476172
1785,0.0959468591776208
1786,0.0964391881604861
1787,0.09589119403084581
1788,0.09429913814854766
1789,0.09178476302000249
1790,0.0886097941068186
1791,0.08513545938866372
1792,0.08176192328873225
1793,0.07886561835613873
1794,0.0767377397553013
1795,0.07553864573788718
1796,0.07527984739786182
1797,0.07582646094184613
1798,0.07691797224817158
1799,0.07821621303467746
1800,0.07937308277332751
1801,0.08009310629092117
1802,0.08017157481316586
1803,0.07950294085926689
1804,0.07806345862984222
1805,0.07588172471997863
1806,0.07301993072723885
1807,0.06957969400103411
1808,0.06571287797744549
1809,0.0616014320623958
1810,0.05740873274418414
1811,0.053245012763499834
1812,0.049172301307001176
1813,0.04523604623543058
1814,0.04149469993802096
1815,0.038024550180724835
1816,0.03490663786579857
1817,0.03222065983372284
1818,0.03004521839102199
1819,0.028451907599158218
1820,0.02749698644464736
1821,0.027213211229952957
1822,0.02760344041671
1823,0.028641477457365113
1824,0.030269745753398646
1825,0.03238026677607689
1826,0.03479490755070299
1827,0.03727457966367773
1828,0.039560506334933396
1829,0.04142358534581708
1830,0.042701118418845746
1831,0.04331529331422842
1832,0.04327027206532879
1833,0.042625529145106034
1834,0.04145736689821422
1835,0.039833393431894855
1836,0.037814339794790465
1837,0.03547297332679155
1838,0.0329105082718595
1839,0.03025754370865539
1840,0.02765791518860018
1841,0.02525229992917918
1842,0.023178536781093176
1843,0.021574642627254902
1844,0.020561885204769186
1845,0.02022198291900318
1846,0.020599889315570847
1847,0.021725509421640345
1848,0.02361997449268602
1849,0.026277246151304057
1850,0.029640814976432037
1851,0.03358985625433453
1852,0.037935422326191126
1853,0.042437644523299727
1854,0.04685047217155427
1855,0.050961505867692145
1856,0.05459874829829381
1857,0.05762521531274424
1858,0.05994742374633541
1859,0.061529020331122966
1860,0.06239193675841696
1861,0.06261178754640268
1862,0.06232613957892464
1863,0.06174878560883883
1864,0.06116241999382132
1865,0.060878880816504076
1866,0.06118022405463219
1867,0.06226785174973509
1868,0.06424821733902344
1869,0.06715163954729832
1870,0.0709477135856809
1871,0.0755410743434533
1872,0.08076928975168096
1873,0.08641830676743098
1874,0.09224127498581536
1875,0.09796989930662137
1876,0.10332680111066067
1877,0.10804286445572134
1878,0.11188044055287065
1879,0.11466335859288133
1880,0.11630151027576222
1881,0.11680397794816962
1882,0.11628672521582906
1883,0.11497412971965812
1884,0.1131924342715416
1885,0.11134949054351444
1886,0.10988986089001263
1887,0.10922469395932076
1888,0.10964217613468406
1889,0.11122099280420154
1890,0.11379898542222545
1891,0.11703027681534114
1892,0.12050033453407288
1893,0.12383448122304405
1894,0.1267660973079444
1895,0.12918015247741974
1896,0.13113849677140954
1897,0.13285013651673286
1898,0.13457087630981426
1899,0.13648752712598566
1900,0.13865281181610517
1901,0.14097945645645524
1902,0.14326958512170077
1903,0.1452650607255432
1904,0.14670301563238658
1905,0.1473574039506537
1906,0.1470649994467865
1907,0.14574196348620944
1908,0.14338560626114014
1909,0.14005676056471345
1910,0.13585417969482796
1911,0.13090143865051784
1912,0.12535604221691302
1913,0.11942231519541018
1914,0.11333590946359917
1915,0.10731774570412321
1916,0.10153211737610264
1917,0.09606984951650416
1918,0.0909445569654666
1919,0.08610397113325281
1920,0.08147406594061556
1921,0.07701023475049537
1922,0.07270578205359159
1923,0.06856515686955748
1924,0.06459607826824051
1925,0.06084376906467265
1926,0.05743037269081913
1927,0.054539815259170704
1928,0.05234335685986086
1929,0.050936857598700785
1930,0.05033734343159947
1931,0.05050182090262761
1932,0.05132092517897434
1933,0.052596323118179966
1934,0.054037900330697795
1935,0.05529349596261812
1936,0.05599518561927242
1937,0.055802005640269776
1938,0.05443762246830718
1939,0.051728324046566306
1940,0.04762071990170175
1941,0.04215659907863011
1942,0.035429377468425303
1943,0.027567732841970772
1944,0.018752354467901352
1945,0.009232840750862212
1946,-0.0006772519230869763
1947,-0.01061976737187655
1948,-0.020209664819429766
1949,-0.02904972639487483
1950,-0.036760569406692346
1951,-0.04303452724110177
1952,-0.04769076510887937
1953,-0.05070034077137835
1954,-0.052169546277672306
1955,-0.05230139562638663
1956,-0.05137305152091849
1957,-0.04973166806497498
1958,-0.04774830980148859
1959,-0.04569279191191413
1960,-0.0436146611734875
1961,-0.04134852825537269
1962,-0.03863448665148477
1963,-0.035255662769919316
1964,-0.031132385900342414
1965,-0.02636301607225301
1966,-0.02121471238506643
1967,-0.01607116613643933
1968,-0.01135890602829877
1969,-0.007481180021231467
1970,-0.004768684266747957
1971,-0.003444484298411825
1972,-0.0036102280391121667
1973,-0.005248924272952355
1974,-0.008223868263621498
1975,-0.012278856423667812
1976,-0.017056893225537748
1977,-0.02212970805316507
1978,-0.027029905004349056
1979,-0.03128957402904335
1980,-0.034483861376257516
1981,-0.03628028414025036
1982,-0.036500470311254904
1983,-0.0351974809913552
1984,-0.032729964698771895
1985,-0.02976193901139064
1986,-0.027118673593544182
1987,-0.025548775350787555
1988,-0.025532416610590553
1989,-0.02721232048721167
1990,-0.030418134339209216
1991,-0.034731804810095745
1992,-0.03957359206486636
1993,-0.044299970204005966
1994,-0.048293925590177325
1995,-0.051034488160601
1996,-0.05215271351849628
1997,-0.051484995837251184
1998,-0.04911334962345593
1999,-0.045363695330160624
2000,-0.040746670314729186
2001,-0.03585542451737185
2002,-0.0312504240906132
2003,-0.027360723707425705
2004,-0.02442346590295433
2005,-0.02247232216135964
2006,-0.021369320843649932
2007,-0.02085784219375143
2008,-0.020618529868057796
2009,-0.020328116336948768
2010,-0.01971710551846986
2011,-0.01860366828783109
2012,-0.016892588817043336
2013,-0.014557125958887756
2014,-0.01162095183903622
2015,-0.00813767203159648
2016,-0.004166413944142895
2017,0.00023816729883079
2018,0.004996747593326017
2019,0.009940837934335584
2020,0.014768071864289358
2021,0.019078169727785206
2022,0.022474891390603723
2023,0.02466035652303952
2024,0.025474869654867983
2025,0.024887598991820987
2026,0.022965165830005362
2027,0.019835453321856784
2028,0.01565253892379302
2029,0.010578844813332421
2030,0.004804238034639683
2031,-0.0014108993024351862
2032,-0.007712990655175755
2033,-0.013682333969095385
2034,-0.018895611267753746
2035,-0.02297225231964308
2036,-0.02556327041783381
2037,-0.026305226695355035
2038,-0.024790708846523977
2039,-0.020584328223470925
2040,-0.013316637988273403
2041,-0.0028672468893080304
2042,0.010449187082339405
2043,0.025823808277093938
2044,0.04205920432807368
2045,0.057775110324177384
2046,0.07162476732173827
2047,0.08245445417434082
2048,0.08940076715370844
2049,0.09196451138157115
2050,0.09005915638411291
2051,0.08399643718751891
2052,0.07440896278440867
2053,0.062145972770621234
2054,0.048166585684076016
2055,0.0334338744409684
2056,0.018823480199094692
2057,0.005076628089754393
2058,-0.00719867691872984
2059,-0.017515577551992286
2060,-0.025517672511599317
2061,-0.031006981115547522
2062,-0.03397091167504428
2063,-0.03458196866620252
2064,-0.03314905533052724
2065,-0.0300396708727656
2066,-0.02561988927105723
2067,-0.020229039872783686
2068,-0.014171728396396313
2069,-0.00771701715352824
2070,-0.0011113652119051959
2071,0.0054057686247686995
2072,0.011615854469136107
2073,0.017361036176347037
2074,0.02256081296470148
2075,0.027180179682641078
2076,0.031177372722881146
2077,0.03446511380049364
2078,0.03689309905318227
2079,0.03825906677061407
2080,0.03835216756185946
2081,0.03700741764534795
2082,0.03415696343063027
2083,0.02987459114744066
2084,0.024390441796875228
2085,0.01806572542777186
2086,0.01135420641639702
2087,0.004766049100486999
2088,-0.0011829821886671012
2089,-0.006040862634330817
2090,-0.009474792082968676
2091,-0.011286799064350159
2092,-0.011405820581653972
2093,-0.009881801947171061
2094,-0.006870578058069895
2095,-0.0025912419516338947
2096,0.002717928330024337
2097,0.008811590167571867
2098,0.01543658568644742
2099,0.02235525598036453
2100,0.029382381568317784
2101,0.036393391487365694
2102,0.043296173392963745
2103,0.050000603585937886
2104,0.05640270545059885
2105,0.06237272994417597
2106,0.06775013067254275
2107,0.07236007105207816
2108,0.07604949079316722
2109,0.07872199399931908
2110,0.08035004843370314
2111,0.08096517476342194
2112,0.08064404010131725
2113,0.07949396883525464
2114,0.0776349660723775
2115,0.07519049186936341
2116,0.07228878269811287
2117,0.06906283591665535
2118,0.06565071321436568
2119,0.06219593040151969
2120,0.058836499322782884
2121,0.055688826348284426
2122,0.05284272099633745
2123,0.05035772715265836
2124,0.04824388984672369
2125,0.04644920743907323
2126,0.044891599333281185
2127,0.04352548257717662
2128,0.04239047036553857
2129,0.04160550757298919
2130,0.041309264635906805
2131,0.041579473691762917
2132,0.04238847785874379
2133,0.043629977883995225
2134,0.04518722891858133
2135,0.046982048485999434
2136,0.048974263489970124
2137,0.051128815078493026
2138,0.05339059966398704
2139,0.05569273331399145
2140,0.057984678600225936
2141,0.06024339247632273
2142,0.062453881633187935
2143,0.06458099266749637
2144,0.06655410189909529
2145,0.06826958231754246
2146,0.06961263892989372
2147,0.07048937059237965
2148,0.07084191805421507
2149,0.07063595377269741
2150,0.06984420964630447
2151,0.06844708457173657
2152,0.0664460393850083
2153,0.0638801702777331
2154,0.060844537783986435
2155,0.057509099048621774
2156,0.054127587421232914
2157,0.05101531278588168
2158,0.048491277517685
2159,0.046820601435362985
2160,0.04618643450749989
2161,0.046673181854899354
2162,0.04825019306721236
2163,0.050780695189425754
2164,0.054056682649066566
2165,0.05782548879929578
2166,0.0618015062208538
2167,0.06568664248806516
2168,0.06920186573218862
2169,0.0721142347870868
2170,0.07425872315255641
2171,0.07556363844765808
2172,0.07607198605663582
2173,0.07594059789548654
2174,0.07542010960626543
2175,0.0748224245345421
2176,0.07445240546601666
2177,0.07451399214244657
2178,0.07507172601460423
2179,0.07610815044143111
2180,0.0776166640892949
2181,0.07965175542897707
2182,0.08231471653797812
2183,0.08570714213227638
2184,0.08988823558110788
2185,0.09484010437141568
2186,0.10043917766013971
2187,0.10645144794092443
2188,0.1125640053582585
2189,0.11843617962992979
2190,0.12374570695419554
2191,0.12822673457709283
2192,0.13170666325825436
2193,0.13413821221520691
2194,0.13561963380291225
2195,0.13639495381592665
2196,0.13682008972072385
2197,0.13729443098115868
2198,0.13817967225819047
2199,0.13971935948880748
2200,0.1419660633836032
2201,0.14475354691165318
2202,0.14774485145687488
2203,0.1505224389323267
2204,0.15266737990466253
2205,0.1538121350960509
2206,0.15367280805354225
2207,0.15207033351952884
2208,0.14894365846242316
2209,0.1443410529861242
2210,0.13838738110170024
2211,0.13125435377094674
2212,0.12315272116656575
2213,0.11433841530988786
2214,0.10511593761662708
2215,0.09582427252624891
2216,0.08680245207953372
2217,0.07835195247813354
2218,0.07071671887430936
2219,0.06407604897298884
2220,0.05852642694271885
2221,0.054052391809844336
2222,0.05051940104118628
2223,0.04771510307985738
2224,0.045428129103862264
2225,0.04352511050389215
2226,0.041986936789512326
2227,0.04088529037099725
2228,0.040314293918225975
2229,0.04032341360006534
2230,0.040891831918041924
2231,0.04194134328890887
2232,0.04334472555281952
2233,0.04490205484422983
2234,0.04632520137359835
2235,0.0472853590419769
2236,0.04750419767539633
2237,0.04681844387828052
2238,0.04518497561435951
2239,0.04265818651973124
2240,0.03938094468516299
2241,0.035583142261443
2242,0.031555222609684234
2243,0.027594515722905586
2244,0.0239510945245143
2245,0.020789802516986755
2246,0.018179210528278082
2247,0.01612473773312172
2248,0.014637182188205311
2249,0.013780089417270134
2250,0.013646472714007912
2251,0.014294724719819924
2252,0.01571765972030867
2253,0.01786628822222724
2254,0.02068468037441233
2255,0.024114245033982802
2256,0.028072455929378355
2257,0.03243342713951596
2258,0.03702196525508354
2259,0.0416194193726173
2260,0.04598080214772185
2261,0.049859385478118586
2262,0.053030967407266455
2263,0.055319205315565015
2264,0.056626368577116656
2265,0.05695764115461627
2266,0.05641581627897161
2267,0.05515630506237556
2268,0.05332542310659756
2269,0.0510215917913079
2270,0.04829245146258074
2271,0.04515033229666103
2272,0.04159809641292568
2273,0.03767286291869788
2274,0.03348976399320704
2275,0.0292478258676994
2276,0.025188279469472157
2277,0.02152491254944977
2278,0.01837494748405106
2279,0.015722270234710383
2280,0.013430529078310651
2281,0.011299458784720601
2282,0.00914067126754201
2283,0.006837713485843236
2284,0.004368815500860118
2285,0.0018018541407647387
2286,-0.000732758458930756
2287,-0.00310406213449978
2288,-0.0052590023004153875
2289,-0.007252819870783742
2290,-0.009196201256500277
2291,-0.011171309397585446
2292,-0.01319167785712183
2293,-0.015212505029936268
2294,-0.01714600169355392
2295,-0.018857123915086475
2296,-0.020151895813469205
2297,-0.020770342791384313
2298,-0.0203828792007328
2299,-0.018597569401566576
2300,-0.014987246747110898
2301,-0.009123387836714627
2302,-0.0005993236165731824
2303,0.010962404998092468
2304,0.025915186304887858
2305,0.044585973711715673
2306,0.06725055036936517
2307,0.09409854707306922
2308,0.1251997691481079
2309,0.1604712728563129
2310,0.19964974203476094
2311,0.24228746032384765
2312,0.28779104414043377
2313,0.33549242288289133
2314,0.38471058438703165
2315,0.4347749439302232
2316,0.4850188798585508
2317,0.5347661430128982
2318,0.5833213687286734
2319,0.6299636423985956
2320,0.6739398467960136
2321,0.7144548755916666
2322,0.7506529279077174
2323,0.7815975566817966
2324,0.8062759545583811
2325,0.8236256868330085
2326,0.8325438452009999
2327,0.8318662793596957
2328,0.8203641639368092
2329,0.7968111525429766
2330,0.7601181088630001
2331,0.7094848227944747
2332,0.6445338711767176
2333,0.5654209066656235
2334,0.4729058419048834
2335,0.36836732291846175
2336,0.25376833982964864
2337,0.13158622169047438
2338,0.004708540292072207
2339,-0.12370250061749348
2340,-0.25036855649074974
2341,-0.3720648441207097
2342,-0.48578915263300554
2343,-0.5889208724655615
2344,-0.6793555356325346
2345,-0.7555943184149443
2346,-0.8167784069944444
2347,-0.8626694790100273
2348,-0.8935822585365477
2349,-0.9102879466675727
2350,-0.9139068041837535
2351,-0.9057925855593109
2352,-0.8874235561776297
2353,-0.8603273515256484
2354,-0.8260417489635158
2355,-0.7860939966627376
2356,-0.7419814231867361
2357,-0.6951324224790835
2358,-0.6468470831063765
2359,-0.5982557630943358
2360,-0.5503223494104037
2361,-0.5038715087974688
2362,-0.4596166687847548
2363,-0.41818833311015763
2364,-0.3801424693059347
2365,-0.34590944578681065
2366,-0.31569667032141746
2367,-0.2894083177897601
2368,-0.26661846983426296
2369,-0.2466046247741103
2370,-0.22845557984785989
2371,-0.2112470380846338
2372,-0.19422458372213966
2373,-0.17691704743028858
2374,-0.15915320615621045
2375,-0.1410179818774024
2376,-0.1227919098523683
2377,-0.10488529872428227
2378,-0.08777058969373781
2379,-0.07192382749395292
2380,-0.057776614060916553
2381,-0.0456705024322194
2382,-0.0358143859212428
2383,-0.028259627311345056
2384,-0.022907964717001662
2385,-0.019554596038407687
2386,-0.017946475586021374
2387,-0.017820282373704255
2388,-0.018903399412741786
2389,-0.02089854844145012
2390,-0.023485654246039604
2391,-0.026348351012599757
2392,-0.029207863735765373
2393,-0.03185266061846077
2394,-0.03415587577289252
2395,-0.03607118817880107
2396,-0.03760881436668387
2397,-0.03880091422543597
2398,-0.03966979422038845
2399,-0.04021407893681739
2400,-0.04041866520355006
2401,-0.04028122431401511
2402,-0.039841190974429175
2403,-0.039200578876818895
2404,-0.038531460411810464
2405,-0.0380601823163284
2406,-0.03802055736791479
2407,-0.03859608557311521
2408,-0.039886984328621186
2409,-0.04191012831687756
2410,-0.04461172522976717
2411,-0.0478792340704016
2412,-0.051553129965655135
2413,-0.055437138329549746
2414,-0.05931139473684864
2415,-0.06296603642132423
2416,-0.06624719336002349
2417,-0.069074704188578
2418,-0.07141979133722834
2419,-0.07327599869923467
2420,-0.07464757793939804
2421,-0.07554628477257376
2422,-0.07598715364032234
2423,-0.07598933801613418
2424,-0.0755798268210474
2425,-0.07479170044247353
2426,-0.07366362621016832
2427,-0.0722428847484627
2428,-0.0705761186256894
2429,-0.06868821223421304
2430,-0.0665800206042946
2431,-0.06427175186447519
2432,-0.0618685464862962
2433,-0.059579579097558136
2434,-0.05767239155670743
2435,-0.05641748217141665
2436,-0.05604399102156225
2437,-0.05669149875302704
2438,-0.058378385839468874
2439,-0.06099834937127629
2440,-0.06432045190946091
2441,-0.067991000694063
2442,-0.0715692211407831
2443,-0.07461916847006479
2444,-0.07683653873808777
2445,-0.07814022238058917
2446,-0.07866001277939785
2447,-0.07862832927139782
2448,-0.07826600954230169
2449,-0.07774492282703664
2450,-0.07721166124107963
2451,-0.07679439548403527
2452,-0.07656986456351174
2453,-0.07652976978262167
2454,-0.07657447224847251
2455,-0.07654461113697371
2456,-0.07629421238281438
2457,-0.07577053050724374
2458,-0.07504064408313896
2459,-0.07425534815588607
2460,-0.07359859177061004
2461,-0.07324072436700396
2462,-0.07327921937628384
2463,-0.07368963582331299
2464,-0.07432610165252367
2465,-0.0749641354433438
2466,-0.07535001243916195
2467,-0.07523734694918478
2468,-0.07440723820060759
2469,-0.07267997498350837
2470,-0.06994526339303896
2471,-0.06621318580769435
2472,-0.06164494438286818
2473,-0.05653847129042586
2474,-0.051279707182472684
2475,-0.0462782926332594
2476,-0.04190288472420298
2477,-0.038429049850759386
2478,-0.03601870000844121
2479,-0.03474097678660921
2480,-0.03460488212336479
2481,-0.03555913823412856
2482,-0.03745523230839011
2483,-0.040017517936509504
2484,-0.04286498646527028
2485,-0.04557835013307922
2486,-0.04776716110861927
2487,-0.04910885932569822
2488,-0.049366757860536785
2489,-0.04840567575998458
2490,-0.04620792505974949
2491,-0.042875367119962246
2492,-0.038614718499636685
2493,-0.033717341845660206
2494,-0.028532263330194266
2495,-0.023422009457832994
2496,-0.01870148285065934
2497,-0.014573944146893758
2498,-0.011089816544169668
2499,-0.008151347435084309
2500,-0.005569465995557505
2501,-0.0031592561687737424
2502,-0.0008301632438363311
2503,0.0013821433311753404
2504,0.003352667833143337
2505,0.004938990036992959
2506,0.006049327867124167
2507,0.006681437585676943
2508,0.0069250184479495375
2509,0.006937342804892037
2510,0.00690913132004399
2511,0.007034842787193719
2512,0.00748828355890135
2513,0.00840090589345333
2514,0.009857127783323032
2515,0.011914052091516924
2516,0.01461989606802132
2517,0.018004623994548642
2518,0.022046529599620102
2519,0.026646824113220353
2520,0.03164719158991543
2521,0.03687705193715355
2522,0.042179719191137784
2523,0.047405991350661855
2524,0.052401122909413844
2525,0.057000550391121556
2526,0.0610433474806603
2527,0.0643954666744087
2528,0.06695500302788625
2529,0.06864472519257504
2530,0.06942216504323259
2531,0.06930175587444024
2532,0.06836009030590402
2533,0.06671536606151307
2534,0.06448968124342598
2535,0.06177188607720546
2536,0.05860253716356997
2537,0.0549839791483849
2538,0.05090213216838571
2539,0.04635384587231185
2540,0.04138170343017199
2541,0.03610896072240477
2542,0.030747554000253828
2543,0.025558141170281247
2544,0.02078764279127405
2545,0.016634273913693532
2546,0.013248490878524257
2547,0.010738525478074279
2548,0.009166555103177087
2549,0.008541583387724053
2550,0.008809436889493127
2551,0.009840452056903514
2552,0.011423219480306612
2553,0.013275485087498711
2554,0.015075996664325238
2555,0.01650274325331993
2556,0.017253192556378517
2557,0.017043944776977488
2558,0.015613878112532203
2559,0.012748852532730693
2560,0.008321741711480622
2561,0.0023251294553688646
2562,-0.005114856463301982
2563,-0.013732836468555347
2564,-0.02313425402744622
2565,-0.03284718565622008
2566,-0.042400296922568415
2567,-0.051382233987342846
2568,-0.05946866887443107
2569,-0.06643543407129641
2570,-0.07217227169223395
2571,-0.0766875795317788
2572,-0.08008916947905442
2573,-0.08254709758872147
2574,-0.0842584200678427
2575,-0.08542689021787822
2576,-0.08625101444037814
2577,-0.08690388954565623
2578,-0.08750974569013545
2579,-0.08814612048275249
2580,-0.08888370825512107
2581,-0.08983864369440042
2582,-0.09120124513113188
2583,-0.09322118845861896
2584,-0.09615429124390297
2585,-0.10019535122482318
2586,-0.1054184038337211
2587,-0.11173546657534984
2588,-0.11888673590953787
2589,-0.1264730106898696
2590,-0.1340202862701152
2591,-0.14104928929684743
2592,-0.14712906725108024
2593,-0.1519105433624531
2594,-0.15514778766204695
2595,-0.15671702865991768
2596,-0.15663397368783907
2597,-0.15505678555561014
2598,-0.15225785480458603
2599,-0.1485614496027042
2600,-0.14427260253518048
2601,-0.1396347132999948
2602,-0.13483217399031217
2603,-0.13002435199112053
2604,-0.12538465577578684
2605,-0.12112298789116986
2606,-0.1174798448814742
2607,-0.11469361476032056
2608,-0.1129568297409211
2609,-0.11237966868406485
2610,-0.11296995812971865
2611,-0.11463454704482093
2612,-0.11720849130537918
2613,-0.12050524167165348
2614,-0.12435130773427779
2615,-0.12857270214761338
2616,-0.1329576528003293
2617,-0.1372502671301381
2618,-0.14118935298137916
2619,-0.1445595673526823
2620,-0.1472191103175978
2621,-0.14910199150578454
2622,-0.1502140677063161
2623,-0.15061366737112922
2624,-0.1503571532030796
2625,-0.14943945633261838
2626,-0.14777390760035508
2627,-0.14520973474079713
2628,-0.14156742291383329
2629,-0.13668536279523547
2630,-0.13046425212419255
2631,-0.12289034858942265
2632,-0.11404313992056518
2633,-0.10410281385555568
2634,-0.09335892373744394
2635,-0.08221255082708241
2636,-0.07114746219919466
2637,-0.06065114313650708
2638,-0.05111726000256879
2639,-0.04278694847110416
2640,-0.03575132422332099
2641,-0.029996047715287123
2642,-0.025459282704223804
2643,-0.022074502505493983
2644,-0.019773998255503897
2645,-0.018456738209242127
2646,-0.01795055603908558
2647,-0.017997639664764475
2648,-0.01827835103898693
2649,-0.018467632515759155
2650,-0.018294362033679942
2651,-0.017575746260643513
2652,-0.016223238453474998
2653,-0.014223285336036859
2654,-0.011596967462557561
2655,-0.008362070014307981
2656,-0.0045218389220394815
2657,-7.785770686158798e-05
2658,0.0049477998168659994
2659,0.010494459166649957
2660,0.01645986420263852
2661,0.022707974633484188
2662,0.029071849885859844
2663,0.0353513190509595
2664,0.04132258212021317
2665,0.04676731976552006
2666,0.05150631764295961
2667,0.05541734806701783
2668,0.05842524297194534
2669,0.06047014044369752
2670,0.06148912677500343
2671,0.061441582785986826
2672,0.060360443287131194
2673,0.058380969729949765
2674,0.05572541285343523
2675,0.052669949377968255
2676,0.049521671910161894
2677,0.04661256956442875
2678,0.044309739108357914
2679,0.04301414144407919
2680,0.04311246695383622
2681,0.044887512041755125
2682,0.04841646892025082
2683,0.05349756877232212
2684,0.059667525136796476
2685,0.06632824854421904
2686,0.07290269292911067
2687,0.07892806703281491
2688,0.084076298408008
2689,0.08814068192188437
2690,0.09101281056046201
2691,0.09265690977030183
2692,0.09309178061047552
2693,0.09238236493997494
2694,0.09062482692628357
2695,0.08792207885813044
2696,0.08437525486582095
2697,0.08010855890414136
2698,0.0753090589561813
2699,0.0702427916754354
2700,0.0652235499173337
2701,0.06054891524823068
2702,0.05644831644135335
2703,0.0530802261022707
2704,0.05056452934047922
2705,0.04900114897838842
2706,0.04845961176111242
2707,0.04896270503331073
2708,0.05047311944453387
2709,0.052878109486717326
2710,0.055983830036041335
2711,0.05953521922311579
2712,0.06325855393724138
2713,0.06691060965718945
2714,0.07032008364937901
2715,0.07341098882584454
2716,0.07619506143362331
2717,0.0787302542420725
2718,0.0810690672254098
2719,0.08322530250519354
2720,0.08516795955580952
2721,0.08683455817122895
2722,0.08815017736688663
2723,0.08905298236338993
2724,0.08953932752048367
2725,0.08971211913312091
2726,0.08979824889878059
2727,0.09013206532498891
2728,0.09111388063514919
2729,0.09313987540829156
2730,0.09651670937937791
2731,0.10139765754280596
2732,0.10775965812856736
2733,0.11540470956881554
2734,0.12396939821981186
2735,0.13295316353288125
2736,0.14177806946680943
2737,0.14987217029668
2738,0.15676055584376797
2739,0.16214114847810493
2740,0.165907251076295
2741,0.16810440196859225
2742,0.16885634573648234
2743,0.16829726598916173
2744,0.1665362304068117
2745,0.16368025374207473
2746,0.15990594765097862
2747,0.15552241508736953
2748,0.15097767819207603
2749,0.14680294189391274
2750,0.14351923043832435
2751,0.14154248829819246
2752,0.1411167858607064
2753,0.14229251911727
2754,0.14494500791095724
2755,0.14880386177065089
2756,0.15347320179589863
2757,0.15846575383852848
2758,0.16328735491505303
2759,0.16755434656255977
2760,0.17107066179891597
2761,0.17381973403644402
2762,0.17589852690393842
2763,0.17744886181383174
2764,0.1786118380279747
2765,0.17949576932441152
2766,0.18016245345724752
2767,0.1806547385707946
2768,0.18103596979070158
2769,0.1813806167104968
2770,0.18172537497351327
2771,0.18203568819867894
2772,0.18220403268426055
2773,0.18207144330642439
2774,0.18146358993171044
2775,0.1802236196385237
2776,0.17823250794236248
2777,0.17542241542484474
2778,0.17178127009031696
2779,0.16734296501448012
2780,0.1621711250581323
2781,0.156348007339067
2782,0.1499705008789497
2783,0.14315125694785527
2784,0.1360246501095475
2785,0.12875956916105077
2786,0.1215786528011378
2787,0.11476884053024657
2788,0.10865713427573136
2789,0.10354957369174199
2790,0.09966955950449806
2791,0.09712921175698286
2792,0.09593239698995673
2793,0.09599164953723589
2794,0.09715882217464222
2795,0.09927497283018413
2796,0.10221217196951905
2797,0.10587700900366204
2798,0.11019344550520176
2799,0.11509294433079229
2800,0.1205031236294367
2801,0.1263191208957156
2802,0.13237068512472264
2803,0.13841501436135756
2804,0.1441657159782108
2805,0.1493380522381462
2806,0.15369400821691864
2807,0.15707929669792645
2808,0.15943167587780777
2809,0.16075390181192176
2810,0.1610785008293618
2811,0.1604492921537755
2812,0.15891641768514456
2813,0.15652960219783071
2814,0.1533272316948718
2815,0.14933474910848268
2816,0.14458021920123215
2817,0.13911752849978343
2818,0.1330427624490717
2819,0.1264935333548701
2820,0.11962925928499805
2821,0.1126032354838877
2822,0.10554537095179689
2823,0.09856600003473132
2824,0.09176830342371327
2825,0.085247458760144
2826,0.0790721567985331
2827,0.07326517549148562
2828,0.06779969724471917
2829,0.06260682020912162
2830,0.05757997705334284
2831,0.05257641254333735
2832,0.04742294796176014
2833,0.041933230944611065
2834,0.03594943719110697
2835,0.029403320571735458
2836,0.022358523779060325
2837,0.015003597460435033
2838,0.007605039694480108
2839,0.00045038034407630847
2840,-0.006202681614508311
2841,-0.012175436668760909
2842,-0.017409378377823453
2843,-0.02197280223010589
2844,-0.026020664751003536
2845,-0.02973241446816177
2846,-0.033268495204609665
2847,-0.03675920452602004
2848,-0.04030066940364753
2849,-0.04393372479906057
2850,-0.04761467467136612
2851,-0.05120378427842038
2852,-0.05448512971792991
2853,-0.05721144292321529
2854,-0.059154684192448466
2855,-0.06014491438204579
2856,-0.060094434201351625
2857,-0.05900986770444385
2858,-0.05698495092047812
2859,-0.054173434365840524
2860,-0.050764639993397406
2861,-0.04697207833003565
2862,-0.04302049267937863
2863,-0.03913294297855933
2864,-0.035527827402185595
2865,-0.03241636622111742
2866,-0.030001258567683414
2867,-0.02848138432811678
2868,-0.028036962083971766
2869,-0.028779410158257097
2870,-0.03069553082364621
2871,-0.03362518685609551
2872,-0.0372871599375231
2873,-0.04133881916752529
2874,-0.04543946414878817
2875,-0.04929833873231224
2876,-0.052701703675005006
2877,-0.05551445994002869
2878,-0.057664478765327994
2879,-0.05912888658253476
2880,-0.05992768826342842
2881,-0.060111684857000365
2882,-0.05974148870645062
2883,-0.05888185312904891
2884,-0.05762243147829042
2885,-0.0560971660850281
2886,-0.05448271820244964
2887,-0.05298499753454873
2888,-0.05182202107452437
2889,-0.05120270967591596
2890,-0.05129696322211433
2891,-0.05220136562013473
2892,-0.05392557179354553
2893,-0.05640963309693299
2894,-0.059545804288292294
2895,-0.06318379229566341
2896,-0.06713129891764544
2897,-0.07116809617797688
2898,-0.07506915034881821
2899,-0.07861770013992402
2900,-0.08160449732702078
2901,-0.08383164176863793
2902,-0.08513393959730191
2903,-0.0854054818632428
2904,-0.08461262112646498
2905,-0.08279000724526854
2906,-0.08002844506783427
2907,-0.07646969038826723
2908,-0.07232173185139187
2909,-0.06788323946655402
2910,-0.06354135898284193
2911,-0.059721072346858986
2912,-0.056797245761411215
2913,-0.05499172778706511
2914,-0.05427819846783116
2915,-0.05432935884848325
2916,-0.05453468736806451
2917,-0.05408053009837174
2918,-0.05206244405736353
2919,-0.047600074416590005
2920,-0.0399262789996262
2921,-0.028436121851154163
2922,-0.012703899842202777
2923,0.007520919279249745
2924,0.03233417129128904
2925,0.061702865790564984
2926,0.09548090809065876
2927,0.13340228072143265
2928,0.17505153468260556
2929,0.2198380302025947
2930,0.2670094402110085
2931,0.3157078714881642
2932,0.36503492649376923
2933,0.4140960036195117
2934,0.46202186481462654
2935,0.5079746593271934
2936,0.5511446351456272
2937,0.5907411129123623
2938,0.62597292751074
2939,0.6560235230530633
2940,0.6800387766942132
2941,0.6971305198838996
2942,0.7063838344750033
2943,0.7068551224902508
2944,0.697557687786016
2945,0.6774682361641089
2946,0.6456025217715643
2947,0.6011528275729643
2948,0.5436309601481724
2949,0.4729817227210088
2950,0.389662200299112
2951,0.29467325996304095
2952,0.18953019098433457
2953,0.07620067814042102
2954,-0.04294975808965971
2955,-0.16521956630550783
2956,-0.2876821023389236
2957,-0.4073383081135395
2958,-0.5212713261805776
2959,-0.626791935774605
2960,-0.7215826153163574
2961,-0.8038287322522064
2962,-0.872306110166106
2963,-0.9263945860412844
2964,-0.96601670063747
2965,-0.9915450560993676
2966,-1.0037200023606114
2967,-1.0035708814294761
2968,-0.9923216637111083
2969,-0.9712977046541238
2970,-0.9418618276691122
2971,-0.9053826716466697
2972,-0.8632248753014437
2973,-0.816753829430097
2974,-0.7673392373586604
2975,-0.7163282833551098
2976,-0.6649777476796196
2977,-0.6143761251716608
2978,-0.5653944280065597
2979,-0.5186765911140191
2980,-0.474660750004568
2981,-0.43361786596142865
2982,-0.39568993137305747
2983,-0.36090866063350685
2984,-0.32919446520816514
2985,-0.30035875106743826
2986,-0.2741259672467326
2987,-0.25017161553119943
2988,-0.2281618692424902
2989,-0.20778142377837255
2990,-0.18875626561745473
2991,-0.1708866111763123
2992,-0.15407645378111304
2993,-0.13833766092184765
2994,-0.12377617017688773
2995,-0.11056788197644286
2996,-0.0989132177432399
2997,-0.08897851698804013
2998,-0.08085516383772297
2999,-0.07455241077841858
3000,-0.07001200837229485
3001,-0.06712643411651231
3002,-0.06575497089443816
3003,-0.06573050471553496
3004,-0.06684685220732398
3005,-0.0688429778001708
3006,-0.07141314875367752
3007,-0.07424411910309571
3008,-0.0770592038462203
3009,-0.07964620028360817
3010,-0.08184976446555925
3011,-0.08353141044170723
3012,-0.08452799676419637
3013,-0.0846482631027238
3014,-0.08372693864540187
3015,-0.08170921239740084
3016,-0.078710600159846
3017,-0.07501974430648264
3018,-0.07104853910293155
3019,-0.06725570877968033
3020,-0.06407445354862211
3021,-0.06186007236580012
3022,-0.06085290481336223
3023,-0.06114873103694733
3024,-0.06268551910612942
3025,-0.06526709298698685
3026,-0.06862282465286229
3027,-0.07246767373526035
3028,-0.0765315571419546
3029,-0.08055972040350697
3030,-0.08430237038841337
3031,-0.08751104453207577
3032,-0.08994741820128423
3033,-0.09139934538905206
3034,-0.09169731520974896
3035,-0.0907291819839885
3036,-0.08846709123796927
3037,-0.08501780302679213
3038,-0.08066846073227607
3039,-0.07587876601489432
3040,-0.07120536606801929
3041,-0.06719676364678674
3042,-0.0643032341836804
3043,-0.0628158494855965
3044,-0.06284458416601754
3045,-0.06434808380669148
3046,-0.06719142157303458
3047,-0.07118757970686106
3048,-0.0761147271856187
3049,-0.08172923374264618
3050,-0.08778002223295307
3051,-0.09401996782428919
3052,-0.10021476722767368
3053,-0.10614906985386474
3054,-0.11163249272341054
3055,-0.11650666835640867
3056,-0.12064119841251016
3057,-0.12391635222350635
3058,-0.12621829936637996
3059,-0.1274653278099732
3060,-0.12764589713521915
3061,-0.12683049873344607
3062,-0.12514370085345136
3063,-0.12272831132094275
3064,-0.11973573140396944
3065,-0.11633374260466064
3066,-0.11270699667209107
3067,-0.10904032211289373
3068,-0.10548616727060775
3069,-0.10213445122118564
3070,-0.09901551717794001
3071,-0.09613991653376883
3072,-0.09353484798063592
3073,-0.09123932181003047
3074,-0.08927034214377894
3075,-0.08760082937610585
3076,-0.08616857728336873
3077,-0.08490793501850352
3078,-0.08378093850821104
3079,-0.08278413151305353
3080,-0.08193720912383166
3081,-0.08128102188033817
3082,-0.08089028600239949
3083,-0.08088024511032539
3084,-0.08138727256695333
3085,-0.08252584739073629
3086,-0.08434621250082187
3087,-0.08681485082837256
3088,-0.08982124124932722
3089,-0.09319057563468214
3090,-0.09667598153913784
3091,-0.09994591893640183
3092,-0.1026177141733765
3093,-0.10433960952893592
3094,-0.10486160667575932
3095,-0.10405868215921761
3096,-0.10192437461990562
3097,-0.09856199435504316
3098,-0.09417203958970924
3099,-0.08901466400682438
3100,-0.08335386218351674
3101,-0.07742015912637189
3102,-0.07140538965757456
3103,-0.06546981376458587
3104,-0.05974786803899024
3105,-0.05435627316782678
3106,-0.04940593219750211
3107,-0.045013932671474556
3108,-0.041311826977895996
3109,-0.03844537604884434
3110,-0.036564929468997545
3111,-0.03580809870011054
3112,-0.03627206931937101
3113,-0.03797702896454214
3114,-0.040838320052276
3115,-0.04466710437650721
3116,-0.04919689351634302
3117,-0.05411657239478419
3118,-0.059094536355822465
3119,-0.06379017312001915
3120,-0.06786402349926365
3121,-0.0710032064412508
3122,-0.07296321512918
3123,-0.07360916021764956
3124,-0.07293344477673176
3125,-0.07103573171343798
3126,-0.0680782612991912
3127,-0.06425347892912033
3128,-0.05977871568557591
3129,-0.0548895644830736
3130,-0.04981336348345174
3131,-0.044743297178721345
3132,-0.03982965990295982
3133,-0.03517639999867567
3134,-0.030832128342109445
3135,-0.026791124006827025
3136,-0.02302242804513055
3137,-0.019498969688215594
3138,-0.016184121633706985
3139,-0.012997294764282939
3140,-0.00981027347353973
3141,-0.006482805636309894
3142,-0.002912326735115755
3143,0.0009274786774751223
3144,0.004966542573027047
3145,0.009033087743599505
3146,0.012870845685680626
3147,0.016187125001769265
3148,0.01872177416367376
3149,0.020317161836504675
3150,0.02096670363927892
3151,0.02082020334126748
3152,0.020140182086028077
3153,0.019224213066799948
3154,0.018320747836071544
3155,0.017571516858570505
3156,0.016996912560144378
3157,0.016511696456895104
3158,0.01596000814167251
3159,0.015170686060543045
3160,0.01401934345320383
3161,0.012466324588744084
3162,0.010546829685912609
3163,0.00832406666549697
3164,0.005843670271642912
3165,0.003115073047387609
3166,0.00011670214962637064
3167,-0.0031938928903080493
3168,-0.006874217631456461
3169,-0.010986829219175796
3170,-0.015582087380850276
3171,-0.020682306656821983
3172,-0.026271628317172863
3173,-0.032290371959720426
3174,-0.03863338380940673
3175,-0.045150209790799874
3176,-0.05164583604513593
3177,-0.0578905996195618
3178,-0.06365253942803607
3179,-0.06875248932148521
3180,-0.07312385772692473
3181,-0.07684812716202111
3182,-0.08013761932665743
3183,-0.08326029092953101
3184,-0.08644058683621593
3185,-0.08979057180985163
3186,-0.09330216523070683
3187,-0.0968905292443802
3188,-0.10046034203852768
3189,-0.10396339172632323
3190,-0.10742182633342143
3191,-0.11091794241432229
3192,-0.11456453057940022
3193,-0.11845376498440958
3194,-0.12259629029893862
3195,-0.1268988258462659
3196,-0.1312076171328903
3197,-0.13538526695839156
3198,-0.1393643276226181
3199,-0.14314768574186623
3200,-0.14677766126800698
3201,-0.15031501857384866
3202,-0.15383364043626968
3203,-0.15740971801333173
3204,-0.16109958718231185
3205,-0.16491874582918856
3206,-0.16883219574989788
3207,-0.17275764960039156
3208,-0.17658063590321596
3209,-0.18017950572802127
3210,-0.18345313425089274
3211,-0.1863396961833518
3212,-0.18882518617560884
3213,-0.19095795083427292
3214,-0.1928691075295613
3215,-0.19476025341868283
3216,-0.19683643148241234
3217,-0.19922343515347996
3218,-0.20192479336372518
3219,-0.20483195322005768
3220,-0.20775801919810405
3221,-0.21046940544885842
3222,-0.21272311163331634
3223,-0.21432159283505012
3224,-0.21517606541228165
3225,-0.21534511110264462
3226,-0.21500358251572618
3227,-0.2143425596224123
3228,-0.21347470148859127
3229,-0.2124160694548535
3230,-0.21112994153801345
3231,-0.20956808827176074
3232,-0.20768944847947757
3233,-0.20547915115136883
3234,-0.2029679375508193
3235,-0.2002359166131109
3236,-0.19740346284175625
3237,-0.19461472304712366
3238,-0.19201083897958446
3239,-0.1897012604039113
3240,-0.18774788917714624
3241,-0.18615927844524913
3242,-0.1848861823802298
3243,-0.1838222160971917
3244,-0.18281255485883474
3245,-0.18167045795046402
3246,-0.18020567673022295
3247,-0.17825672985421148
3248,-0.1757064903672765
3249,-0.1724819048942054
3250,-0.1685644803701811
3251,-0.16401935787764815
3252,-0.15901314000889957
3253,-0.1537944346554453
3254,-0.1486536942706371
3255,-0.14389693718138613
3256,-0.1398316500540482
3257,-0.13673291649759908
3258,-0.1347861463390959
3259,-0.13404245709874857
3260,-0.1344181539229295
3261,-0.13573914162600648
3262,-0.13780135377609684
3263,-0.14040573574287318
3264,-0.1433523778502741
3265,-0.14641683227000554
3266,-0.1493413079660598
3267,-0.15185347640925692
3268,-0.15369670356964452
3269,-0.1546505257460625
3270,-0.15454128319694477
3271,-0.1532510084474557
3272,-0.15072351108615778
3273,-0.14696510488237755
3274,-0.14204329564399176
3275,-0.13608786269465584
3276,-0.12928891522010555
3277,-0.1218786352385412
3278,-0.1140965568505211
3279,-0.10615795787193748
3280,-0.09824324206909135
3281,-0.09050634227535538
3282,-0.08309108907552798
3283,-0.07614719915520048
3284,-0.06983395130147374
3285,-0.0643054025538363
3286,-0.05968875788399664
3287,-0.056063595728775416
3288,-0.05343938540118071
3289,-0.05174076095161382
3290,-0.050811196056943855
3291,-0.05043099602151408
3292,-0.05034258349189144
3293,-0.050274730932913236
3294,-0.04996142999615434
3295,-0.049165166637733425
3296,-0.047703233030978356
3297,-0.04545353375611897
3298,-0.04233837241166986
3299,-0.038317043776096675
3300,-0.033401645485430426
3301,-0.02768027379894036
3302,-0.02132820493667588
3303,-0.014599610552258715
3304,-0.0078048148067552245
3305,-0.0012741078857386797
3306,0.004697742670457859
3307,0.009903462734288744
3308,0.01423148418292966
3309,0.017643282180688776
3310,0.02017642665427239
3311,0.021984566443833585
3312,0.023356131349034664
3313,0.024657348307316775
3314,0.026219111580995175
3315,0.02823671617360881
3316,0.030730031489679403
3317,0.03355892236404123
3318,0.03645115034078696
3319,0.03902650334499592
3320,0.040855499253272656
3321,0.0415627253266588
3322,0.04091746273598107
3323,0.03886929451085527
3324,0.03554160886731533
3325,0.03120407596305187
3326,0.026228657018783883
3327,0.021034239892430917
3328,0.01603834712258972
3329,0.011630464609797515
3330,0.008151826082431868
3331,0.0058596830783940465
3332,0.004892614671005696
3333,0.005269211146529485
3334,0.006917291435481774
3335,0.009715015360123272
3336,0.01353867343841283
3337,0.018299888031981418
3338,0.023940544461469513
3339,0.030378559597323686
3340,0.03743760873305163
3341,0.04481690647673388
3342,0.052136590309692955
3343,0.05902915022994038
3344,0.06520579226513754
3345,0.07046419152913082
3346,0.07466897029386907
3347,0.07774544064124261
3348,0.0796910155330949
3349,0.080586130130935
3350,0.08058600881067676
3351,0.079878059920626
3352,0.07861417561863723
3353,0.07687235548580501
3354,0.07468954887675891
3355,0.07213057951026977
3356,0.06933083648446339
3357,0.06648767960704856
3358,0.06380608533742516
3359,0.06143294181390444
3360,0.05943534049237676
3361,0.05783864444143379
3362,0.05667346859975886
3363,0.05598402019874267
3364,0.05580894127887109
3365,0.05616233029965744
3366,0.057022268128017126
3367,0.05832900349331371
3368,0.05999425228051497
3369,0.061916013752646486
3370,0.06398920248704634
3371,0.0661104224621701
3372,0.06818951545580687
3373,0.07017213427555731
3374,0.07205636290839944
3375,0.07388860990208208
3376,0.07574063558731566
3377,0.07767806215425291
3378,0.07972785585755868
3379,0.08185598902846
3380,0.0839825083079936
3381,0.0860390441777714
3382,0.08802123362042935
3383,0.0899908836661466
3384,0.09203167476356096
3385,0.09419579332256088
3386,0.09648638668770212
3387,0.09889378116916779
3388,0.10144986362024531
3389,0.10424250886170716
3390,0.10737354525839146
3391,0.11089816718646506
3392,0.11478793813898623
3393,0.11892601988364249
3394,0.12312163695742284
3395,0.1271361460679445
3396,0.13071810216206478
3397,0.13363352075216398
3398,0.13567574545270877
3399,0.13666828871133427
3400,0.13649662976840599
3401,0.13516772238615207
3402,0.13284350077167356
3403,0.12980831895213746
3404,0.12638749366439408
3405,0.12287337577438284
3406,0.11950788239982357
3407,0.1165124770544301
3408,0.11410779874533653
3409,0.11248602666098165
3410,0.11175603142188263
3411,0.11190556594828112
3412,0.11279846877346877
3413,0.11420097998866441
3414,0.11583619442203716
3415,0.11745054587313805
3416,0.11885573477024511
3417,0.11993274128779823
3418,0.12061344051404009
3419,0.12085964568365469
3420,0.12065487295896798
3421,0.12001413717303362
3422,0.11900394052330318
3423,0.11774828309799658
3424,0.11639948224772564
3425,0.11509815281265637
3426,0.11396538531644416
3427,0.11311658810364386
3428,0.1126573187093859
3429,0.11266461761294667
3430,0.11318701921138692
3431,0.11426568715800696
3432,0.11594314406255017
3433,0.11824310537870392
3434,0.12114672518483105
3435,0.12459101792973845
3436,0.1284850714407253
3437,0.1327301698080817
3438,0.1372385758651295
3439,0.14194429259756422
3440,0.14679182802584043
3441,0.15170163430657568
3442,0.15653584019539002
3443,0.16108843474963466
3444,0.16510387872361923
3445,0.1683156790617604
3446,0.17048948522566915
3447,0.17145407676207955
3448,0.17111993362870764
3449,0.1694949481931526
3450,0.166698363014893
3451,0.16297303248049824
3452,0.1586919980683378
3453,0.15434163118427477
3454,0.15047142302488545
3455,0.14761474055054974
3456,0.14618452207990057
3457,0.14636658654191997
3458,0.14806269969734048
3459,0.15091415134014427
3460,0.15438293924672855
3461,0.15784775182623967
3462,0.1606823117026957
3463,0.16230569051782376
3464,0.16221855851749933
3465,0.16004315909460853
3466,0.15557226103151936
3467,0.14881082462836195
3468,0.139978610375867
3469,0.12946761177649052
3470,0.11778788678920986
3471,0.10552975527610367
3472,0.09333696943698194
3473,0.08187577379136136
3474,0.07178718497163945
3475,0.06361194742912976
3476,0.05771040429621002
3477,0.05422666142540222
3478,0.05311302458342885
3479,0.05418314728795444
3480,0.05715693975841259
3481,0.0616894574585513
3482,0.06739727636290012
3483,0.07388301449880291
3484,0.08074722891961522
3485,0.08758662441366236
3486,0.09398618058443581
3487,0.09952412244123467
3488,0.10381048646407481
3489,0.10655497500459535
3490,0.1076345368621648
3491,0.10712244517701351
3492,0.10525583291541457
3493,0.10236236029006004
3494,0.0987919979245258
3495,0.09486976559169884
3496,0.09086327074828945
3497,0.08698230431223804
3498,0.08340897817555783
3499,0.08030744897877988
3500,0.07779905643444554
3501,0.0759462807692764
3502,0.07475677184467706
3503,0.07417773941443427
3504,0.07407715319440593
3505,0.07424275383867289
3506,0.07441638056473902
3507,0.07434900795434823
3508,0.07385620293199152
3509,0.07285754821076912
3510,0.07139438201815873
3511,0.0696323040725771
3512,0.06783406397564519
3513,0.06629536697171147
3514,0.06527838222636782
3515,0.06496949397352413
3516,0.06546386094959336
3517,0.0667770595897079
3518,0.06886875810288887
3519,0.07165454739171427
3520,0.07500213593729686
3521,0.07873033127151861
3522,0.08262737605618477
3523,0.08648951902503209
3524,0.09017530570895432
3525,0.09366113254083035
3526,0.09706182737928348
3527,0.10059108703353939
3528,0.10448101426446692
3529,0.1088971890647239
3530,0.1138642708196112
3531,0.11920426290345863
3532,0.12451057452795494
3533,0.12919701181584592
3534,0.13262761330151915
3535,0.13427148654345156
3536,0.13380135564539278
3537,0.13111038799028543
3538,0.12629215665827462
3539,0.11961488496834285
3540,0.11148672001285427
3541,0.10242391516075433
3542,0.09302721697919063
3543,0.0839397455360355
3544,0.0757699229382686
3545,0.06900467299788751
3546,0.06396909956089337
3547,0.060863101634685585
3548,0.05982956888391535
3549,0.06099510577177666
3550,0.0644942364541352
3551,0.0705064884778486
3552,0.07928080124429535
3553,0.09111076495388365
3554,0.10626965885878031
3555,0.12494415046259523
3556,0.14719944107458577
3557,0.17298264517387626
3558,0.20214433676972599
3559,0.23444647347493835
3560,0.2695421006419563
3561,0.30695895304000975
3562,0.34614651508116623
3563,0.386590146642304
3564,0.42791378871177355
3565,0.46991332783114126
3566,0.5125392881703508
3567,0.5558498972837934
3568,0.5999214754686889
3569,0.6447234344123747
3570,0.6900104176832694
3571,0.7352734855531528
3572,0.7797357409724273
3573,0.8223630171412728
3574,0.8618946916355459
3575,0.8969111839245062
3576,0.9259279340574664
3577,0.947477284235825
3578,0.9601396636216505
3579,0.9625265642877998
3580,0.9532638178876702
3581,0.9310249679100615
3582,0.8946305310401836
3583,0.8431909689060687
3584,0.77625186891315
3585,0.693921263167413
3586,0.5969803117948054
3587,0.48695222598376686
3588,0.3660924824394292
3589,0.23729638838660563
3590,0.10393626753797182
3591,-0.030354950521465602
3592,-0.16192103988412634
3593,-0.2873035553590463
3594,-0.40341842821372276
3595,-0.5076860626099999
3596,-0.5981354431845655
3597,-0.6734761315869303
3598,-0.7331047939359149
3599,-0.7770430937027096
3600,-0.8058307492029662
3601,-0.8203918527056165
3602,-0.8219055455246056
3603,-0.8117163094649187
3604,-0.7912801342854238
3605,-0.7621211536748926
3606,-0.7257859778989353
3607,-0.6837884843612799
3608,-0.6375472933647786
3609,-0.5883416118126072
3610,-0.5373085937338402
3611,-0.4854750412067945
3612,-0.43379940691250346
3613,-0.3831999030333833
3614,-0.3345466359715401
3615,-0.2886070834396641
3616,-0.2459538971586271
3617,-0.20687070737095264
3618,-0.17131464297242405
3619,-0.1389688667710086
3620,-0.10935478639374036
3621,-0.08194580935275049
3622,-0.05625066760571413
3623,-0.031867964572100164
3624,-0.008519236867018566
3625,0.01394207841529637
3626,0.03554434939819318
3627,0.056217338859978115
3628,0.07580425713410059
3629,0.09407769764930711
3630,0.11077437660414424
3631,0.1256386107664418
3632,0.13845300082086553
3633,0.1490546601982234
3634,0.15736113616849354
3635,0.16341117333822444
3636,0.16737792237848395
3637,0.16952178361004738
3638,0.17010866015140394
3639,0.16934954613053269
3640,0.16740222335845634
3641,0.16443021318750997
3642,0.16066877500206556
3643,0.15644925639934035
3644,0.15217107089197018
3645,0.14823957948831784
3646,0.14500232205953217
3647,0.14270831043761445
3648,0.14148245378458596
3649,0.14130580242186247
3650,0.14202148759656164
3651,0.14337435988132402
3652,0.1450609036955328
3653,0.14677197071282466
3654,0.1482298543445302
3655,0.14922122403589963
3656,0.1496210861711034
3657,0.14940406808688844
3658,0.14864177270700724
3659,0.14748730765930906
3660,0.1461490491869148
3661,0.1448480837550189
3662,0.14375679479417955
3663,0.1429412424727441
3664,0.1423430522362578
3665,0.14181522112349562
3666,0.14119357442201422
3667,0.14036842139075734
3668,0.13932295238107295
3669,0.13812584889489365
3670,0.13689645777699802
3671,0.13576960722836529
3672,0.13486901114030253
3673,0.1342883465859353
3674,0.13408211741201942
3675,0.1342648466017084
3676,0.134815259315707
3677,0.13568607325599294
3678,0.1368166837186711
3679,0.13813841434144725
3680,0.13956532053160461
3681,0.14098205098471359
3682,0.1422458577608516
3683,0.1431984237551663
3684,0.14367794490553823
3685,0.14354046838555354
3686,0.1426937463541156
3687,0.1411152971370119
3688,0.13882812272411513
3689,0.13586416649609076
3690,0.1322718316621791
3691,0.1281678932254741
3692,0.12377686308030039
3693,0.11941412786707459
3694,0.11543204463728061
3695,0.1121712366216269
3696,0.10991618881966565
3697,0.10884980661118981
3698,0.10903658268667155
3699,0.11044044617859156
3700,0.11294256618591628
3701,0.11633461232541294
3702,0.12030014994662781
3703,0.12441892635461944
3704,0.12821938271034372
3705,0.1312844885658395
3706,0.1333829530086566
3707,0.13454917715747247
3708,0.1350455136436309
3709,0.13522764647721855
3710,0.13539489864470214
3711,0.13569812238232137
3712,0.13612916244247045
3713,0.1365572206557442
3714,0.136778548933763
3715,0.13658965927906783
3716,0.13587377976356346
3717,0.13465226845168565
3718,0.1330830395810896
3719,0.13142223414440152
3720,0.12995588912509293
3721,0.1289096291311877
3722,0.1283745142589725
3723,0.12829059715212388
3724,0.12848670060734524
3725,0.12873770350905095
3726,0.12880448936166303
3727,0.12845106106657614
3728,0.12745972755823368
3729,0.1256622502861188
3730,0.12297918706390215
3731,0.11944755645682385
3732,0.11522443953592953
3733,0.1105604501639989
3734,0.10574974887350104
3735,0.10109128451178354
3736,0.09687983166725021
3737,0.09338745153453551
3738,0.09080702894053767
3739,0.08919534115656455
3740,0.08846694856829336
3741,0.08844265606876583
3742,0.08890626425825102
3743,0.0896320881645373
3744,0.09039578391059108
3745,0.09099451937956178
3746,0.09127737671461042
3747,0.09116915524397917
3748,0.09067372888413572
3749,0.08985640543065407
3750,0.08881493819537027
3751,0.08765728920295401
3752,0.08650237682135911
3753,0.08548897857132663
3754,0.08475746019586489
3755,0.08441073966411135
3756,0.08450396543850937
3757,0.08507534038122477
3758,0.08617593308896221
3759,0.08786244703518722
3760,0.0901513707264229
3761,0.0929687227889297
3762,0.09614420811888515
3763,0.09945659622995379
3764,0.10269836562859741
3765,0.1057322489967455
3766,0.10850481461168633
3767,0.11099412549599504
3768,0.11313681630505595
3769,0.11479966455905102
3770,0.11579918381191162
3771,0.11593826429808665
3772,0.11505005304658235
3773,0.1130477857082095
3774,0.10996464189196868
3775,0.1059686167069436
3776,0.10135191971240351
3777,0.0965002228789569
3778,0.09184128884270036
3779,0.08777232357077802
3780,0.08458617395476041
3781,0.08243190205984369
3782,0.08132643962009016
3783,0.08120041965301357
3784,0.08193995223565842
3785,0.08338961932062455
3786,0.08531846752811821
3787,0.08739476734584793
3788,0.08921008268148918
3789,0.09033974552535357
3790,0.09040523044008329
3791,0.08912958612812133
3792,0.08637945395805507
3793,0.08217781559730242
3794,0.076693290289521
3795,0.0702214215115088
3796,0.06315958674338971
3797,0.05596997604077327
3798,0.049126658206465036
3799,0.04305805365039492
3800,0.03810178431347871
3801,0.034470254257310366
3802,0.03222281876158013
3803,0.03125649772970799
3804,0.03132419363115354
3805,0.03207190223833739
3806,0.03308196513857967
3807,0.03391274009670406
3808,0.034126610783736175
3809,0.03331017951728761
3810,0.03110912134302549
3811,0.027288783354703503
3812,0.021784782379545783
3813,0.014702956934700105
3814,0.006285906787168976
3815,-0.003115053560559412
3816,-0.01306002162103027
3817,-0.023052235382325995
3818,-0.03259284125053877
3819,-0.041250694088317205
3820,-0.048722890022343174
3821,-0.05486546032754873
3822,-0.059688463760717445
3823,-0.06332385729901882
3824,-0.06599077502178985
3825,-0.06798338867064106
3826,-0.06967600962359172
3827,-0.07151316907522136
3828,-0.0739674639781734
3829,-0.07747719301209786
3830,-0.08237575279545363
3831,-0.08881886647731975
3832,-0.09673818552285234
3833,-0.10586048412218421
3834,-0.11579088460791004
3835,-0.1261175636835891
3836,-0.13649809622586462
3837,-0.14670720084404257
3838,-0.15664683917820463
3839,-0.16633973566561486
3840,-0.17592306440392477
3841,-0.18562164324635008
3842,-0.19566864180819946
3843,-0.2061984668828892
3844,-0.21717336874434126
3845,-0.22837003540667616
3846,-0.239415386734874
3847,-0.24985074648128455
3848,-0.25920493397532807
3849,-0.2670736597298981
3850,-0.2731975243301197
3851,-0.27749996092349555
3852,-0.28006392785132106
3853,-0.2810763975546958
3854,-0.2807789923378861
3855,-0.27943842767800714
3856,-0.2773341218828444
3857,-0.27475740155311507
3858,-0.2720146547526178
3859,-0.26943179065690964
3860,-0.2673551795965012
3861,-0.2661326158249982
3862,-0.26607111089810753
3863,-0.26739080710290086
3864,-0.27019585423939746
3865,-0.2744692991597876
3866,-0.2800784168646845
3867,-0.2867703418857605
3868,-0.2941601129457158
3869,-0.3017386341758145
3870,-0.30892095117961377
3871,-0.3151202374096014
3872,-0.31981576966669434
3873,-0.3226027810614974
3874,-0.32323001071272606
3875,-0.3216236390436122
3876,-0.317889474088433
3877,-0.31228753238541457
3878,-0.3051765198897589
3879,-0.29694930714511064
3880,-0.28799383129183576
3881,-0.2786769273983145
3882,-0.26932295032142484
3883,-0.260182146784096
3884,-0.25141378841045264
3885,-0.24310241108045216
3886,-0.2352877319467503
3887,-0.22798625717021268
3888,-0.22120964589359524
3889,-0.21498142076051455
3890,-0.2093449112969911
3891,-0.204362246524649
3892,-0.2001055416912751
3893,-0.19664629295434435
3894,-0.19404410173090153
3895,-0.1923173105203972
3896,-0.19140071657759664
3897,-0.19113421419731644
3898,-0.19129838048533285
3899,-0.19165948187546944
3900,-0.19199462828274858
3901,-0.19210900510457504
3902,-0.19185812854712841
3903,-0.1911686255621914
3904,-0.19005716146193288
3905,-0.18864371813975803
3906,-0.18713533869989504
3907,-0.18577378591242688
3908,-0.18476961085807767
3909,-0.18424075675432208
3910,-0.18417364101035685
3911,-0.1844343265195552
3912,-0.18482945040023768
3913,-0.18517334963799062
3914,-0.18531849903431055
3915,-0.185148567601608
3916,-0.18457038836315043
3917,-0.18353279528941976
3918,-0.18205837932167512
3919,-0.18025746734703288
3920,-0.17831632986536905
3921,-0.17646688050519863
3922,-0.1749418994660826
3923,-0.17393294167712553
3924,-0.17357716810668994
3925,-0.17395656608387128
3926,-0.17506452245880844
3927,-0.17674922014838562
3928,-0.1786855768066085
3929,-0.18040149266711428
3930,-0.18135772637721273
3931,-0.18105915880823714
3932,-0.17914901352406618
3933,-0.17544585095624812
3934,-0.16992740219997507
3935,-0.16270007843466086
3936,-0.15397792487264197
3937,-0.14406439843060195
3938,-0.1333379471501789
3939,-0.12224766963840196
3940,-0.11130645084360408
3941,-0.10106407005047754
3942,-0.09203974875927502
3943,-0.08461367435776751
3944,-0.07894025387340428
3945,-0.07495371634018916
3946,-0.07246366778817541
3947,-0.07127874203706294
3948,-0.07128489037533364
3949,-0.07243892588735094
3950,-0.0747107792440275
3951,-0.0780396835053524
3952,-0.08232021603504679
3953,-0.08739512455110984
3954,-0.09305202411476686
3955,-0.09903701259760354
3956,-0.1050760485398173
3957,-0.11087361591741518
3958,-0.11608020643657356
3959,-0.12026503756438245
3960,-0.12293529538644017
3961,-0.12360011721677876
3962,-0.12184774137694332
3963,-0.11742435927182288
3964,-0.11032835658595806
3965,-0.10090004348901725
3966,-0.0898290892190809
3967,-0.07803104919183126
3968,-0.06644934176758997
3969,-0.055882289269072107
3970,-0.04688418672168292
3971,-0.03973786120855039
3972,-0.03448624496578937
3973,-0.031004340140027304
3974,-0.029079802156697483
3975,-0.028472665450748835
3976,-0.02894024576158831
3977,-0.03023445458999665
3978,-0.03209878144733166
3979,-0.03427983899576831
3980,-0.03653170456911414
3981,-0.03860463730715979
3982,-0.04025320653829705
3983,-0.04127144172191356
3984,-0.04151461523664261
3985,-0.04089385204532257
3986,-0.039368890991304084
3987,-0.036949966060782345
3988,-0.03369458997676017
3989,-0.02969300247402345
3990,-0.025057841684807642
3991,-0.019931405022809802
3992,-0.014497266962581289
3993,-0.008971890725511899
3994,-0.0035767342020555037
3995,0.001488469544620727
3996,0.006060865243055917
3997,0.010022468694169404
3998,0.013308063712290227
3999,0.01590915661489242
4000,0.017857918922954134
4001,0.019187941703250756
4002,0.019896535474065953
4003,0.019940333807405224
4004,0.019270650561603403
4005,0.017877183657089717
4006,0.015803250040602027
4007,0.013133710754667021
4008,0.009987936182310723
4009,0.006535598351933872
4010,0.0030161520142742843
4011,-0.00026359855978260187
4012,-0.002958602275030531
4013,-0.004733717877849391
4014,-0.005317268644847904
4015,-0.004547889946715099
4016,-0.0024112804467869603
4017,0.0009436351771132614
4018,0.005225939045573626
4019,0.01005748746113631
4020,0.015036301304604894
4021,0.019789114820149653
4022,0.024011145351070757
4023,0.02749567330099114
4024,0.03015154414843634
4025,0.03200491178145017
4026,0.03317643081592178
4027,0.03383262254877516
4028,0.03413148819787611
4029,0.034190540886521945
4030,0.03410001227437773
4031,0.03397206607766433
4032,0.03396808698691856
4033,0.034254515826129345
4034,0.034913708330015086
4035,0.03588855200906231
4036,0.037003677927777416
4037,0.03803609889082177
4038,0.03879384953428298
4039,0.03918429339193039
4040,0.039254145292699626
4041,0.0391789741012404
4042,0.03919509328137113
4043,0.039493317657045085
4044,0.04012240871762758
4045,0.04095651998399022
4046,0.0417529471717273
4047,0.04227578135276287
4048,0.042415402197844045
4049,0.04222679696920639
4050,0.0418672603254192
4051,0.04150253663009546
4052,0.0412613480050964
4053,0.041244791636155166
4054,0.04155477109919016
4055,0.042321325422986195
4056,0.04371305856150927
4057,0.045902905155058814
4058,0.048997377950734236
4059,0.0529849248477503
4060,0.05773352680522542
4061,0.06301698464996908
4062,0.06854032136212551
4063,0.07395465973166723
4064,0.07887778163471741
4065,0.08294498168998198
4066,0.0858932199164119
4067,0.08764411937111381
4068,0.08833750477510975
4069,0.08829982177223164
4070,0.08796315376462419
4071,0.08775860381982797
4072,0.08802451337782687
4073,0.08896616979195066
4074,0.09065572467932047
4075,0.09303551475114763
4076,0.09592076498128371
4077,0.09902610288481105
4078,0.10201714753074954
4079,0.10456201007754048
4080,0.10637637441964422
4081,0.1072778610995525
4082,0.10724297562647434
4083,0.10643154144872015
4084,0.1051498649059677
4085,0.10374484312827309
4086,0.10245955717284115
4087,0.1013344193866591
4088,0.10021507938169703
4089,0.09882327423386024
4090,0.09681679022821219
4091,0.09383751161746459
4092,0.08957767789971408
4093,0.08384990731804862
4094,0.07662656288054177
4095,0.06804661401228733
4096,0.05839961369674519
4097,0.04808172076696522
4098,0.03753570005366595
4099,0.02720641097068828
4100,0.01752108190242977
4101,0.0088793796428315
4102,0.0016356975106330662
4103,-0.003938401416780591
4104,-0.007698934589333132
4105,-0.009645576268425046
4106,-0.00989713054646035
4107,-0.00865289247428295
4108,-0.006161658971547171
4109,-0.0027021804923967104
4110,0.001415957958287133
4111,0.005830898819532776
4112,0.010115736948371826
4113,0.013807933865121722
4114,0.016484051197500155
4115,0.017846206780640674
4116,0.01777885263891662
4117,0.01635587397326055
4118,0.0138010343871735
4119,0.010421357203069524
4120,0.006541370440925828
4121,0.002461578132513215
4122,-0.0015560612904718264
4123,-0.0052893089340581845
4124,-0.00855183603708183
4125,-0.011192065579900195
4126,-0.013105886916369049
4127,-0.014256394522689647
4128,-0.014674334317822429
4129,-0.014423439085174513
4130,-0.013551287191961617
4131,-0.012070125427074762
4132,-0.009979536278474815
4133,-0.007289640862479444
4134,-0.004015367686412074
4135,-0.00016600891632532284
4136,0.004237883249736941
4137,0.009120210338232614
4138,0.014306462434390063
4139,0.01952573062230143
4140,0.02447670104481246
4141,0.028924529100246586
4142,0.03277540027713009
4143,0.03610326303556184
4144,0.039136854920641125
4145,0.04221370939184061
4146,0.04569282974478231
4147,0.049837566031321744
4148,0.05471522220108223
4149,0.06016527168035164
4150,0.06585711583561871
4151,0.07139815691047309
4152,0.07641467633290681
4153,0.080568722860241
4154,0.08354080681048266
4155,0.08502177035440749
4156,0.0847333105345855
4157,0.0824733790581857
4158,0.07816463131762559
4159,0.07188471763550851
4160,0.06387631631370376
4161,0.054529716260253394
4162,0.044321726158541866
4163,0.033736688461989656
4164,0.023218969200216003
4165,0.013165794292962454
4166,0.00394121751677341
4167,-0.004113881083319353
4168,-0.010701319383901769
4169,-0.015606751371592903
4170,-0.018724137063666088
4171,-0.02004647963071075
4172,-0.01964223739478688
4173,-0.01763972288720279
4174,-0.014221532598494072
4175,-0.009617876512696355
4176,-0.004095239015248606
4177,0.0020452641685751137
4178,0.008460440683355573
4179,0.014784756919765062
4180,0.02069441498707417
4181,0.02598171993526831
4182,0.030598660021347576
4183,0.03465506399449955
4184,0.03839021373339777
4185,0.042155992208211555
4186,0.04641505664387061
4187,0.05171193537271847
4188,0.05860099528569471
4189,0.0675775766683522
4190,0.07905598452506224
4191,0.09338057814130538
4192,0.11083441275513174
4193,0.1316358828163489
4194,0.1559357367258892
4195,0.18382421966911874
4196,0.21534275978084555
4197,0.2504805831032081
4198,0.2891432901399783
4199,0.3311070927034709
4200,0.3759864485794539
4201,0.4232280219757126
4202,0.47212082831555396
4203,0.52181467403404
4204,0.5713512637647741
4205,0.6197007812389201
4206,0.665786355935903
4207,0.7084879437260363
4208,0.7466344209117491
4209,0.7790084853871976
4210,0.8043805357029579
4211,0.82155603485015
4212,0.8294019333237382
4213,0.8268434538114147
4214,0.8128697809896231
4215,0.7865845974526413
4216,0.7472885790163551
4217,0.6945582359170337
4218,0.6283072296908709
4219,0.5488416806597314
4220,0.4569207976704417
4221,0.3538203353140073
4222,0.24137694831394987
4223,0.1219735925380979
4224,-0.0015620914041174667
4225,-0.12613092477289178
4226,-0.24855762376057167
4227,-0.36577717088047795
4228,-0.47501013218423643
4229,-0.5739044377694077
4230,-0.6606043938834248
4231,-0.733744722461138
4232,-0.7924137071296428
4233,-0.8361432381929307
4234,-0.8649438707782318
4235,-0.8793379141973687
4236,-0.8803326118409845
4237,-0.8693247723623272
4238,-0.8479696147993261
4239,-0.8180480037429846
4240,-0.7813451573759584
4241,-0.7395457077244211
4242,-0.6941658921878585
4243,-0.646548703274425
4244,-0.5979138341322686
4245,-0.549397612158277
4246,-0.5020153338999076
4247,-0.45657486771571815
4248,-0.41363358702626657
4249,-0.3735209215307442
4250,-0.33638176668876224
4251,-0.302218406648008
4252,-0.2709285157427818
4253,-0.24232294461187723
4254,-0.21612460997598515
4255,-0.1919834101277266
4256,-0.16952088192865752
4257,-0.14837720297414186
4258,-0.12824662455808472
4259,-0.10891457066049318
4260,-0.09028027100232239
4261,-0.07232942998005037
4262,-0.05507621836239476
4263,-0.03852688310179321
4264,-0.022682016199301273
4265,-0.007568031784292312
4266,0.006716779394102632
4267,0.01996817127330265
4268,0.03187595993577377
4269,0.042061576690731996
4270,0.05015290475650974
4271,0.055881740290715874
4272,0.05915725368353776
4273,0.060077131940947714
4274,0.05888897319543919
4275,0.05594126059043837
4276,0.051643873839552566
4277,0.04643425402206604
4278,0.040743639779977976
4279,0.034965483986118824
4280,0.02942832360159269
4281,0.024364853659836212
4282,0.019879693052947227
4283,0.015955987951077888
4284,0.012528251652478947
4285,0.009576840502614098
4286,0.007170427285012057
4287,0.00543732216230859
4288,0.004511949993008205
4289,0.004501500899980497
4290,0.0054764415374969995
4291,0.007467398247782448
4292,0.010448340695764132
4293,0.01430021949472988
4294,0.018772454880054884
4295,0.023471557833856013
4296,0.02790750179309802
4297,0.03160465071851379
4298,0.03423423257092331
4299,0.035693712066217013
4300,0.03609419175954062
4301,0.03569442597526613
4302,0.03484535495384237
4303,0.03396799955400267
4304,0.033533348209620846
4305,0.03400441055762542
4306,0.03576044127928618
4307,0.03904782258193238
4308,0.04394906004756126
4309,0.050347295824782846
4310,0.05790903358701304
4311,0.06611441741431594
4312,0.07432031209852764
4313,0.08182404465690377
4314,0.08792373607060276
4315,0.09198628849208144
4316,0.09351797581274689
4317,0.09221948351276792
4318,0.08801195017721158
4319,0.08103588512776175
4320,0.07163381867479329
4321,0.060323495248142414
4322,0.04776670126714093
4323,0.03473331148507436
4324,0.022047825880727834
4325,0.010515011130210037
4326,0.0008366336081127967
4327,-0.006473695575543383
4328,-0.011162549077627608
4329,-0.013260739377828637
4330,-0.01303781013799692
4331,-0.010906589680033713
4332,-0.007332149051377385
4333,-0.002783929251764551
4334,0.0022935366314560638
4335,0.007519734566048278
4336,0.01259933821808629
4337,0.017307538433115242
4338,0.021467753917064167
4339,0.024940561388910043
4340,0.027616907996296042
4341,0.02941608589871941
4342,0.030299797683806955
4343,0.03029927922694104
4344,0.02953879519321715
4345,0.028234607646135966
4346,0.02664381284150507
4347,0.024970373294875513
4348,0.023286569648748166
4349,0.021509318283100303
4350,0.019422210662980426
4351,0.016742057654328815
4352,0.013231613160731402
4353,0.008810126001639069
4354,0.003603589845418154
4355,-0.002073197173999342
4356,-0.007787033048252051
4357,-0.013089390679015694
4358,-0.017607806107749042
4359,-0.021083944392153064
4360,-0.023368426983993502
4361,-0.024409766701800166
4362,-0.024243400093847157
4363,-0.022965012873305463
4364,-0.0206960093495493
4365,-0.017566158220033008
4366,-0.01371833681524828
4367,-0.009319774859315986
4368,-0.004572911504492552
4369,0.00027142119269972547
4370,0.0049158454993124025
4371,0.009058776376590583
4372,0.012459568135677458
4373,0.014984890402168364
4374,0.016626471546308492
4375,0.017497489147429164
4376,0.017813657098854394
4377,0.017864544019326356
4378,0.017962025416284833
4379,0.018362084032376828
4380,0.0191999321770951
4381,0.020473903076481094
4382,0.022069018230644406
4383,0.023795717741733217
4384,0.025424391368694805
4385,0.026705895887070567
4386,0.02738826199613944
4387,0.027249356347532786
4388,0.026150517684564063
4389,0.02408808655216661
4390,0.021210824953147096
4391,0.01779760392654913
4392,0.014211088622413184
4393,0.010839020940762709
4394,0.0080390975824218
4395,0.006106093366882728
4396,0.005250955024812961
4397,0.0055728171381341975
4398,0.007040696154319524
4399,0.00951310329512418
4400,0.012792942622725465
4401,0.01669153455705962
4402,0.021071724855858856
4403,0.025847845639587294
4404,0.03094714906696836
4405,0.03626415600018562
4406,0.04163692929648354
4407,0.04685043440004988
4408,0.05165002632882485
4409,0.05575299388700795
4410,0.05887343003340812
4411,0.06076737481068993
4412,0.06127302986573553
4413,0.060333786858234095
4414,0.058018122971691156
4415,0.05454168147212186
4416,0.0502765562638719
4417,0.04572619106716682
4418,0.041460816885388746
4419,0.03802869564827787
4420,0.03586013106821162
4421,0.035188368480251433
4422,0.03601723088054444
4423,0.03814190585542303
4424,0.0412079869306204
4425,0.04478774471311175
4426,0.04845527776938639
4427,0.05184856084422101
4428,0.054695210390404356
4429,0.05679251948748268
4430,0.057979528753727104
4431,0.05813490853744559
4432,0.05718842581728421
4433,0.05512697526683188
4434,0.05200412712604822
4435,0.047959461785445474
4436,0.04321497078611039
4437,0.03801969787274463
4438,0.0325742679179392
4439,0.026984032754980715
4440,0.02124429714623654
4441,0.015250489093024695
4442,0.008846011549667505
4443,0.0018935753973407083
4444,-0.00567347635435655
4445,-0.01383927184750343
4446,-0.022520118867727687
4447,-0.03158746840644658
4448,-0.0408853334809894
4449,-0.05023433458053365
4450,-0.059433469151700336
4451,-0.06827701024403149
4452,-0.0765797043433478
4453,-0.08419709431383111
4454,-0.09104179385570002
4455,-0.09709098147545711
4456,-0.10238246842898259
4457,-0.10702153533959867
4458,-0.11121178213815021
4459,-0.11527494979638646
4460,-0.11961493923279762
4461,-0.1246297608820374
4462,-0.13061545201613492
4463,-0.13771565094451108
4464,-0.14594736634768696
4465,-0.1552544524442041
4466,-0.1655081073330932
4467,-0.17646561984687853
4468,-0.18776415256056525
4469,-0.19898416738914074
4470,-0.2097547804018079
4471,-0.2198391858152215
4472,-0.22915054664970405
4473,-0.23770092758084688
4474,-0.24552237541209618
4475,-0.2525953176514086
4476,-0.2588108808073663
4477,-0.2639949125277208
4478,-0.2679882262620084
4479,-0.27072695266218266
4480,-0.2722676508992617
4481,-0.2727484137143078
4482,-0.2723261343929134
4483,-0.2711395036145989
4484,-0.26930922880049346
4485,-0.26695881413678824
4486,-0.264240633013032
4487,-0.26135264691939797
4488,-0.25853322220305347
4489,-0.2560316469191643
4490,-0.25406756226138183
4491,-0.252806903125235
4492,-0.25236721828031394
4493,-0.25283185771427374
4494,-0.25424643311185474
4495,-0.2566017703021757
4496,-0.25982654735589805
4497,-0.26378639141404403
4498,-0.26828500166604097
4499,-0.27309713137180724
4500,-0.2780313646881215
4501,-0.28296382262218445
4502,-0.2878130388171254
4503,-0.2924898649276974
4504,-0.29686653279888897
4505,-0.3007846077612769
4506,-0.304095727101906
4507,-0.3067010371260125
4508,-0.3085520588384042
4509,-0.3096147198631047
4510,-0.3098364191453929
4511,-0.3091538477412885
4512,-0.30754144895563196
4513,-0.3050635326292353
4514,-0.30188803561556143
4515,-0.2982447637382152
4516,-0.29435156105788485
4517,-0.29035696083176543
4518,-0.28633279728963595
4519,-0.2823101656613859
4520,-0.2783200851047606
4521,-0.27440667191962204
4522,-0.2706123350677459
4523,-0.26695090488703016
4524,-0.26338363088193484
4525,-0.2598072757155228
4526,-0.2560609983769798
4527,-0.2519641089437703
4528,-0.24738308312643376
4529,-0.24228961643466645
4530,-0.23676967494892037
4531,-0.2309910425364282
4532,-0.22516491279161352
4533,-0.21951568944088953
4534,-0.21425985489131838
4535,-0.20960186164153868
4536,-0.2057304814877943
4537,-0.20277733476632775
4538,-0.200748380082473
4539,-0.19949284907844836
4540,-0.19874850234178076
4541,-0.1982435785142733
4542,-0.19779750130744425
4543,-0.19736164802083755
4544,-0.19699140844709057
4545,-0.19678283001449007
4546,-0.19680862100101473
4547,-0.19708125245468866
4548,-0.19754473121858443
4549,-0.19806405015164014
4550,-0.19839239281302987
4551,-0.1981387848593531
4552,-0.19678567010077194
4553,-0.1937842702567579
4554,-0.18869797568781818
4555,-0.1813364290092454
4556,-0.17183243947615404
4557,-0.16062795976483393
4558,-0.14838179399611903
4559,-0.1358539710776748
4560,-0.12380416800380929
4561,-0.11291677633391176
4562,-0.1037510024695024
4563,-0.09670155458558803
4564,-0.09197370680127717
4565,-0.08959134186069581
4566,-0.0894284629765914
4567,-0.09123395453561052
4568,-0.09464524352010747
4569,-0.09922087516332563
4570,-0.10450843052302879
4571,-0.1101075145764724
4572,-0.11567489263891266
4573,-0.12088024802463855
4574,-0.12536974409546453
4575,-0.12878461458787632
4576,-0.1308357535735141
4577,-0.13138414274778018
4578,-0.1304636512803399
4579,-0.1282237181725785
4580,-0.12483120064501266
4581,-0.12039464088312501
4582,-0.1149435315822996
4583,-0.1084536203552053
4584,-0.10089216465802665
4585,-0.0922608673286457
4586,-0.08262392207830983
4587,-0.0721193525400268
4588,-0.06096068108857057
4589,-0.04943523114354079
4590,-0.0378954760738865
4591,-0.026731825513299893
4592,-0.016318415022176208
4593,-0.006946176893250353
4594,0.0012178116836784928
4595,0.008123019223910866
4596,0.01379961452171085
4597,0.018321819373863655
4598,0.02178386543731966
4599,0.02429845483902116
4600,0.02602070255350965
4601,0.02717472950088131
4602,0.028053282696979938
4603,0.028988798548733263
4604,0.030312610918345327
4605,0.0323194503619778
4606,0.0352449686764961
4607,0.039244918527326075
4608,0.04437216411313294
4609,0.050570752341435564
4610,0.0576951461870955
4611,0.06553709021405624
4612,0.07383652802222028
4613,0.08226332200732599
4614,0.09039129293333156
4615,0.09771530408391708
4616,0.10372691518492301
4617,0.10800894194717622
4618,0.11030526748149566
4619,0.11055193565710002
4620,0.10887552861293591
4621,0.1055635137198692
4622,0.10101433202604494
4623,0.09568696733931661
4624,0.09006104579367273
4625,0.08460353475836714
4626,0.07974204108040417
4627,0.07584666024605063
4628,0.07321162077368447
4629,0.07203034695499241
4630,0.07237431138689944
4631,0.07419071607776316
4632,0.07732461352062248
4633,0.08155489616272214
4634,0.0866251288860694
4635,0.09226851822693516
4636,0.09823656907516619
4637,0.10432224736354083
4638,0.11037134700459975
4639,0.11628664108769994
4640,0.12200540898948083
4641,0.12743989663821384
4642,0.13243090033535326
4643,0.13676282953686833
4644,0.1402216757255643
4645,0.14266519572016076
4646,0.1440920844904281
4647,0.1446744229611137
4648,0.14472832112352196
4649,0.14464903573887292
4650,0.14484263268777847
4651,0.14566197847301426
4652,0.1473529255098068
4653,0.15002024130462374
4654,0.15361374223082194
4655,0.15794155862914025
4656,0.16273597327073833
4657,0.16776429007597238
4658,0.17290825448232872
4659,0.17815460249993764
4660,0.1835418387474046
4661,0.18912246924323847
4662,0.19491813643822212
4663,0.20084950992251885
4664,0.2066997736679918
4665,0.21214776846685615
4666,0.21683250829740552
4667,0.22041890287289118
4668,0.22266124716971622
4669,0.2234415316038218
4670,0.22276249948706128
4671,0.2207194068786692
4672,0.21748699330086785
4673,0.2133176631377533
4674,0.2085219071123926
4675,0.20342487141060184
4676,0.19831374039615413
4677,0.1933987336772441
4678,0.18881844266667522
4679,0.18468854946313587
4680,0.1811450165735172
4681,0.17834756740184238
4682,0.17645516865875235
4683,0.17558785779087374
4684,0.17578498650358954
4685,0.17699366839607347
4686,0.17911007495132458
4687,0.18203900542616927
4688,0.18571665338031415
4689,0.19008617293939062
4690,0.19506127103260726
4691,0.20051385078655498
4692,0.20628772355273
4693,0.2122124000649698
4694,0.2181086928259736
4695,0.2237992484064645
4696,0.2291226929236576
4697,0.23394207461533847
4698,0.23814683692936436
4699,0.24165793114610334
4700,0.24444859998339727
4701,0.24656853868560477
4702,0.24814008160282086
4703,0.24931800959857672
4704,0.25023217686447224
4705,0.25093474271416594
4706,0.251369010520697
4707,0.2513709574188187
4708,0.2507002696568231
4709,0.24908724430223636
4710,0.2462829479168137
4711,0.2421026226898832
4712,0.23645823524249146
4713,0.22938555957763446
4714,0.22106878069606722
4715,0.21185162213130188
4716,0.20222269631682968
4717,0.19277842141227694
4718,0.18416706368745617
4719,0.17700853474924974
4720,0.17180770845246093
4721,0.1689023312687628
4722,0.16845935592303432
4723,0.17049503353483114
4724,0.17489371385421223
4725,0.1814190099182895
4726,0.18972592200598865
4727,0.199392103336326
4728,0.2099744222241054
4729,0.2210700085245938
4730,0.23235364787434282
4731,0.2435753653246282
4732,0.2545214143105157
4733,0.2649664900153633
4734,0.2746496468128266
4735,0.2832841758633589
4736,0.29059410094282295
4737,0.29636097158822666
4738,0.3004541570820165
4739,0.3028252520340988
4740,0.3034742876535969
4741,0.30241652657600415
4742,0.2996774203318555
4743,0.295313932546261
