timestamp,Signal
0,-0.004408428611125327
1,-0.008454328027141996
2,-0.007059538047850755
3,-0.003558083253052552
4,-0.002080617094111602
5,2.810879429249874e-05
6,0.005778788444994203
7,0.008639388878184375
8,0.008506808746508296
9,0.006834302681953184
10,0.010571808082797247
11,0.0043375931415416576
12,0.0005198790122446107
13,0.00028525381758264315
14,-0.0024465916048581754
15,-0.001829533865297519
16,-0.0014791993540281718
17,0.0016111883636665877
18,-0.0013475979625310625
19,-0.0017879008598565387
20,-0.0012400264205263828
21,0.0010028842666882157
22,-0.0014930234179794284
23,0.0018047986203210704
24,-0.00402355912665037
25,0.0038213162829077224
26,0.0015974330871491374
27,-0.005672855718225197
28,-0.00459075088297208
29,-0.004883274574368436
30,0.0021208585585940666
31,-0.002089462724202359
32,-0.0018373445262115425
33,-0.0070015654045526825
34,0.0036616094009344147
35,-0.00839209218049283
36,-0.0006346736353032689
37,0.004073186502465501
38,-0.0009474659500863826
39,0.003098530821823679
40,-0.005342266678086871
41,0.0005849143246951013
42,0.0026885676574352688
43,0.00365206947088767
44,0.0037898362302625404
45,0.008918872777465678
46,-0.001304024151424268
47,-0.003270567524009822
48,0.0014927281503245024
49,-0.0043126213113212014
50,-0.0016685455155966708
51,-0.001541544223336912
52,-0.005051102668399934
53,0.005024852800947082
54,0.0006870815280496777
55,0.004920250417757686
56,0.0033574012598797734
57,0.001447422664188341
58,0.0041897518826971925
59,-0.0075273283071778906
60,-0.0022125543503540984
61,-0.003545127962422838
62,0.0017836785455927866
63,0.0011103991229164095
64,0.0009708822593478342
65,0.005443837405859593
66,-1.917083487866511e-05
67,-0.00013730060343376121
68,0.004028078597821112
69,-0.0010363608748683957
70,-0.005993832555361071
71,-0.0030083842183087454
72,-0.002974746127064467
73,-0.005590568981750377
74,0.0038283059891260395
75,0.005061645842846549
76,0.0013887336878316012
77,0.004963870634187057
78,-0.0025271876486291775
79,-0.009055693325938505
80,-0.005290675092319936
81,-0.004741605282818272
82,-0.011980148344214018
83,-0.0005088104178904602
84,0.005316740456132639
85,0.014753592626309849
86,0.016595588406673537
87,0.01189814636653646
88,0.007590913544085817
89,0.005746156707389318
90,0.007983845148174924
91,0.004875957194530439
92,0.0032751059973725686
93,-0.0021998410285696294
94,-0.007261850874546767
95,-0.012644436051393418
96,-0.015777280972004485
97,-0.024302326122505984
98,-0.01174012697131389
99,-0.011935455813441272
100,-0.016281633906354558
101,-0.0066273306950706025
102,-0.0032709135501564346
103,0.00043438026607835883
104,0.007069905871160338
105,0.007001869774036069
106,0.013977856304457659
107,0.014038770391798015
108,0.010584702471253185
109,0.011158254480523757
110,0.005021567651509429
111,0.0038095246322609293
112,-0.00048343374930828395
113,-0.004399678080472001
114,0.0019295542456908947
115,0.010199840252761778
116,-0.002699541186846937
117,0.013276766264683179
118,0.012410215002865122
119,0.010511523207079172
120,0.0140217091478587
121,0.005139078675103815
122,0.003953695320578595
123,-0.00028317449650210047
124,0.007474545357947546
125,-0.007976551289562596
126,-0.033992382054494674
127,-0.03173318683205688
128,-0.0272043264372033
129,-0.019872592323808617
130,-0.014407183870882388
131,-0.01689563480774263
132,-0.015174682504545976
133,-0.010408906425743198
134,0.00046599055703730463
135,0.005046403348864305
136,0.009607480226455127
137,0.008824661572828647
138,0.018604739819799876
139,0.02341602109704864
140,0.013231655998102132
141,0.009506410002445986
142,0.01392779555484412
143,0.010108328061177974
144,0.009494489677178598
145,0.0018516234413104068
146,0.0034953474434125855
147,0.004075079933893435
148,0.00802812306757813
149,0.005569639361463836
150,0.0007917325943778177
151,0.00675289109145827
152,-0.004505307429500088
153,-0.00815815032835868
154,-0.006777247188812606
155,-0.0036880430989757722
156,-0.003519619693111835
157,-0.006435951863647317
158,-0.006532529390616444
159,-0.022571965869086136
160,-0.025943215844098397
161,-0.01775855926299335
162,-0.0119427033687843
163,0.006507770382583284
164,0.008009381731723862
165,0.014971320681720928
166,0.018525892329595357
167,0.01597085404567966
168,0.01989522666317112
169,0.021482399622500134
170,0.008580188749384677
171,0.01028486707047978
172,0.0089728371528385
173,-0.005934847562446477
174,-0.026833023693053026
175,-0.032104287851779975
176,-0.027044542911400758
177,-0.03183134605316237
178,-0.022993327988335307
179,-0.01097747878581476
180,-0.0045317218035158865
181,0.006885679680316585
182,0.00874306982938544
183,0.008891852879986976
184,0.010995263900637226
185,0.009700357276901151
186,0.013882790790287636
187,0.018092025321402964
188,0.021968579361575064
189,0.0073966756367860025
190,0.011375086215818118
191,0.012077584973892637
192,0.007709937273086857
193,0.006975450797846185
194,-0.0008585696536021654
195,-0.0018927039681370088
196,0.0010361798262923166
197,-0.004984162653683394
198,-0.0037318165336017593
199,-0.006502595126950802
200,-0.008586580219141805
201,-0.006614409008668495
202,-0.010174506365019082
203,-0.0035946427847599128
204,-0.007544108659839866
205,-0.008463531055252892
206,-0.0003007402174165282
207,-0.007468191546899584
208,-0.003271290218546959
209,0.003642410947637853
210,-0.0023719058686355043
211,-0.00023015028174886917
212,-0.0033394198873235694
213,0.0006706174084343767
214,0.003768568337313126
215,0.0009426094396030454
216,0.0001749232504547702
217,0.0014082046123691707
218,0.0031362251925222016
219,0.0036928851810815707
220,-0.0003869577493409715
221,7.717947453943393e-05
222,0.0028134142390567702
223,-0.001689952050905887
224,0.0019556175863247654
225,0.00018193565148554892
226,-0.003157893898262194
227,0.0038335826502987336
228,0.0015274657569722579
229,0.0026029814228227203
230,-0.0008127641517349966
231,0.001711787034967176
232,0.002754049245350396
233,0.0006804652492005559
234,-0.0025957058491106536
235,0.00025398871886121895
236,0.008662897659659885
237,0.0012607197726618507
238,-0.001054687702700315
239,-0.007212188229019725
240,-0.002920942404848274
241,0.0011668034129391422
242,-0.0015490328108900137
243,-0.0017209870930048141
244,-0.0004732005994846026
245,-0.002804999189511768
246,0.0002914250998435428
247,0.0016780153939630182
248,0.004802162505032999
249,0.005428298607601381
250,0.0011349284055611284
251,0.003949802160206429
252,-0.0034684910247995233
253,-0.004149556507420738
254,-0.00264801291635947
255,-0.0008325131400613037
256,0.00016970448130593316
257,-0.008230093654233014
258,-0.0024292958773778966
259,0.007672222667867006
260,0.00028433803081788674
261,-0.003955069530160764
262,-0.0022879179398021064
263,0.00026003076670711757
264,0.003451174787196104
265,-0.004677970053977718
266,0.003774786574886733
267,0.004883758030275901
268,-0.006216240464193399
269,-0.00395879761525229
270,0.001750920016456851
271,0.001233702720553457
272,-0.005929702468875528
273,-0.0001201556345162922
274,-0.001523330949802228
275,0.003915796492178457
276,0.0009862635139508448
277,0.0030608183859875578
278,0.0045381126561976695
279,0.0019098809375683763
280,0.0034175137314186466
281,0.0009033309718753935
282,0.002342363859848179
283,8.066175639163085e-05
284,0.001379034981910783
285,0.0016656944009386726
286,-0.001814697646761735
287,-0.002389672187513487
288,-0.005096669338938773
289,-0.003783966658722747
290,-0.001050558832293845
291,0.0026962736690096323
292,0.005300433010931546
293,-0.004092540226855998
294,0.003387160276611536
295,0.002108717219655492
296,0.0058129540150417035
297,-0.004631993188273306
298,0.0015589077472013243
299,0.0018110169855384628
300,-0.0015742160065381396
301,0.002374029934279447
302,-0.00784265276323447
303,-0.004074106887317795
304,-0.0026861256831988752
305,-0.008733476027813597
306,-0.008123227494646175
307,0.0025708964974546257
308,0.0015534533076196396
309,0.007549316374976435
310,0.007918353457747874
311,0.003807965053991576
312,-0.0037331732606090485
313,-0.0024891676899363533
314,0.002780498990317533
315,0.0034759441206723583
316,-0.0016346453681636147
317,-0.0007533096063884314
318,-0.0032756647914232006
319,-0.00028194625157236357
320,0.005454427370399711
321,-0.0005879849731680823
322,-0.0046084118603423735
323,-0.0023031146836316654
324,-0.003909354019618304
325,-0.0002748272134086554
326,0.003981430735107714
327,0.0004394522276718153
328,0.0005898702518951186
329,0.0031378457953624792
330,0.007637861660424609
331,-0.0011472780800291047
332,-0.0013096801714523399
333,0.006153465394844755
334,0.005001308308127367
335,0.001140733762505966
336,-0.00198601985866569
337,-0.010414103301569125
338,-0.011120538985875707
339,-0.00013404131311049727
340,0.0016432361258004397
341,0.0020874118725606955
342,0.002954662462233617
343,-0.0018237430299414964
344,-0.005556534467357223
345,-0.002775355938637654
346,-0.00164294120075709
347,0.004017047757587078
348,0.0026461672549269177
349,-0.002428887511086027
350,0.0026254024926235502
351,0.0016233320206212702
352,-8.36040021616833e-05
353,0.0056978742852693475
354,0.0028297089468842553
355,-0.004731518998276036
356,-0.004489102592163563
357,0.00044467388089746394
358,0.0060524519800155985
359,2.58622936774415e-05
360,-0.003196690011068138
361,-0.0018963311326209587
362,0.008660526417331504
363,0.0011993945354828884
364,-0.0008195012448903305
365,0.005014574576351291
366,0.005224916810813183
367,-0.003598563676296869
368,-0.003906581083626493
369,-0.002378153103720816
370,-0.0035309194243620026
371,-0.0013518005249321449
372,-0.007400215524342723
373,-0.00016213285886376716
374,-0.0013349625843568236
375,-0.004038551623332824
376,0.0022376613570131033
377,0.0037301226389241226
378,0.005404311094499739
379,0.006603474950979001
380,-0.00339282588414371
381,0.0005337109780790324
382,0.0019248866797312424
383,-0.0006997450550209521
384,-0.0026252479426779286
385,-0.0032589506274603615
386,-0.00420321310099244
387,0.0007202279288217308
388,-0.0020882927513291042
389,-0.0018982907423076376
390,-0.0003135300560496556
391,-0.0049425369492096805
392,-0.0009925962460456822
393,-0.005092115225341094
394,0.003937392178973462
395,0.00923560768309077
396,0.0006381505997350885
397,0.0060011298096372505
398,0.0013107288329985561
399,0.005551775796519253
400,0.010155489824274219
401,-0.005486051602402843
402,-0.0047263219658743244
403,0.0018052189007176263
404,-0.0004676400670730208
405,-0.0020523960466869405
406,-0.0026916454997790353
407,0.0030871350136171026
408,-0.0014558324447331034
409,-0.001913502632737942
410,-0.004779058699923131
411,0.0005404172102400351
412,0.0011556158590871213
413,-0.0032901968125958816
414,0.006431165552418065
415,-0.005129587355021224
416,0.005852239401064348
417,-0.0009132063860151796
418,-0.00022441584146551743
419,-0.0007189102330083692
420,-0.0011062164488708452
421,-0.0003969948427319757
422,-0.0015515032995804404
423,-2.660905313746874e-05
424,-0.0016760885813504088
425,0.0003317285746635163
426,0.002828554642553896
427,0.00027287675048194224
428,-0.004582631559926809
429,0.00518296562737247
430,-0.0033839138931864134
431,5.0320350960526665e-05
432,0.00018950399832808138
433,-0.004767762880193998
434,-0.0043486178920526305
435,-0.001267818178206405
436,-0.0011476011180104675
437,0.0030830897213791186
438,-0.0037468962496023366
439,0.0029357130961242314
440,0.007119225922818695
441,0.004040273656886267
442,0.002281686887295553
443,-0.004910284216047767
444,0.004671802247578275
445,0.0003186557810317264
446,-0.00404551731165167
447,-0.0011031603608870448
448,0.005985148190787812
449,0.0089197477820857
450,0.008858640247308898
451,-0.001908239476912107
452,-0.004655525467194409
453,0.002384601781582692
454,-0.004414219571699427
455,-0.0007329536253149194
456,-0.005956470214877813
457,-0.008866941749772378
458,-0.0006910941527796029
459,-0.004817582029810992
460,-0.006822246189376506
461,-0.0035501496641995468
462,0.005162151509083656
463,0.004051614899729343
464,0.005366280127360702
465,0.002591073946553819
466,0.004496676640792822
467,0.0036027689882765215
468,-0.00591900133803702
469,-0.0025906744480625934
470,-0.005115916198035173
471,0.0017979650278583583
472,0.004953443964200222
473,-0.0013471323275716304
474,0.0002681711854720433
475,0.00646624463803415
476,0.0018399814380269395
477,-8.371414190926074e-05
478,-0.00423221470774991
479,-0.005210205527798102
480,-0.00374246856552129
481,-0.0043764706733999785
482,0.006370954386920267
483,0.005201364001072591
484,0.0007393111692500596
485,-0.001987441917254808
486,0.0004739366180893448
487,-0.0006091342783611595
488,0.002418364757222061
489,0.0022584881054762383
490,-0.0018177549856448006
491,-0.0031835051844443137
492,0.0055540395421242
493,-0.0012321926786771215
494,-0.005447522180389181
495,0.005073599926737126
496,-0.008075923359044581
497,0.005395277829898956
498,-0.001360255463770695
499,-0.002373927847213436
500,0.002679806338921757
501,0.0006153306907480047
502,-0.0002744102463556556
503,-0.00027891780902521666
504,0.0007738660691608088
505,-0.0030662425020691903
506,0.005928911117166455
507,6.900278803650094e-05
508,0.0005552873891646048
509,-0.0005794056125506802
510,-0.002145903522362689
511,-0.0028992138776263218
512,0.0015560420289557307
513,0.000739523163032562
514,0.005042056305484475
515,-0.00021703836205357561
516,0.0011934650320666977
517,0.006010806643053774
518,-0.010515840375249212
519,-0.004732881788071003
520,-0.0004341615195168052
521,-0.005019988850230545
522,-0.0018715710935174532
523,-0.0017384571981749423
524,0.006773629197609369
525,-0.00016503189040055315
526,-0.005763454249079838
527,-0.0027681559286732212
528,0.002978841038131723
529,0.007548998961290269
530,-0.0005082355108294006
531,0.0071096998981883324
532,-0.0022274742928704953
533,0.005751382527220769
534,0.008310501165140309
535,-0.003589635832753968
536,-0.007729453601121428
537,-0.008979819834079302
538,0.0020510067537547368
539,0.0029070414539963466
540,0.0036505488437878434
541,0.005635933574042602
542,0.001123694535180476
543,-0.005318079424686703
544,-0.004273534797464526
545,-0.0005237678749098959
546,0.002535236205503796
547,-0.0007822807984545349
548,0.005262305394690625
549,-0.0033661105563648243
550,0.001137327453005237
551,0.0005140105402262826
552,-0.005988053871848303
553,-0.0016319381020449483
554,-0.006145182190345663
555,-0.0019745294671616957
556,-0.004933200641887304
557,0.005303222182722637
558,0.0029897617548491177
559,0.003203525043252272
560,0.0020129077550713626
561,-0.0027652116867435163
562,-0.0005253999742882952
563,0.003949531773962388
564,0.004742426455199352
565,0.0016277693969694758
566,0.0020015320524031993
567,9.869287332430442e-05
568,-0.004162565700367087
569,-0.0004453989555683272
570,0.0068894869791941305
571,-0.003727137744639059
572,-0.006686388767341196
573,0.0004600180684057164
574,-0.0011384084453019356
575,-5.8417000124202575e-05
576,-0.0026238590235412845
577,0.0020372751802300035
578,-0.0028615932841754895
579,-0.003890583109439713
580,0.004833515817474059
581,0.0023856685930761226
582,0.0030797495865399743
583,0.00044747335807559553
584,-0.002616205732578064
585,-0.002528316899718065
586,0.004298325352622534
587,-0.0017248519738403125
588,0.0024682211190317858
589,-0.0010260281591525948
590,0.0010860374056939973
591,-0.0026458971180548328
592,0.002475067535356058
593,-0.0007425377113249622
594,-0.006385171372278782
595,-0.001104542714776384
596,0.0016182503220376933
597,0.0032852302619888873
598,0.004817684247648742
599,0.004685397550208862
600,-0.003843824424321439
601,0.007201469622693101
602,-0.005711300619944826
603,-0.0016653479917795961
604,-0.0030716197054324428
605,0.0008426409733431547
606,-0.001351832053714308
607,-0.004945991158004556
608,0.004670394602495053
609,0.0015348165326165763
610,-0.00019813571937790132
611,-0.002193221698749326
612,-0.004448159845972863
613,-0.0010734085395722338
614,0.005549691940759727
615,-0.0009204002745506808
616,-0.0016131478948356766
617,-0.00030397972410095044
618,0.001972785256081534
619,-0.00010578230485944022
620,-0.003231366418737563
621,-0.0017908006094770352
622,0.006208462906474287
623,-0.0005177052463623336
624,-0.001454371079765756
625,0.0028949339091919896
626,-0.0006668073510298737
627,0.00407330833990244
628,0.0018275307572096153
629,0.00144001122168018
630,0.0004135012775776433
631,-0.0002383629970726161
632,0.001769290424839789
633,-0.003564226415457429
634,-0.002293004690389098
635,-0.004404351650719828
636,-0.0015567371325958083
637,0.0004854327147973802
638,0.001021644156978749
639,-0.0017317553113802737
640,-0.002258306556361254
641,0.0001083991505973058
642,-0.0012624298089438614
643,0.00780784871340105
644,0.001100147584909659
645,0.001079125698701949
646,-0.004406283841764651
647,-0.004266721381753616
648,0.003073771433113516
649,-0.0020104104073444713
650,-0.0026445749366651988
651,-0.004528195847621021
652,-0.0021835941519303386
653,-0.0022814332910489118
654,0.00765798160074371
655,0.012246287896848701
656,-0.0009401613871110534
657,0.006354983496552857
658,-0.0004705392225956319
659,0.0021316661292100766
660,0.004270946430444871
661,-0.0032696842124756587
662,-0.0007542647135230212
663,-0.0010596515883922715
664,0.0011101937772761373
665,-0.004768277985355329
666,-0.004762296711482246
667,-0.005539325890269061
668,-0.004321186048656786
669,-0.0003460597303113315
670,0.003268200532129808
671,0.0018635995642917536
672,0.001835763705129341
673,-0.0018294131567888642
674,0.005470283372378842
675,-0.0013719192266745178
676,-0.0027288254523269856
677,-0.0004125414604893244
678,0.000348809694371845
679,0.00011397950536519083
680,-0.000574780563294729
681,0.0005472497852907557
682,-0.005445282403099447
683,0.0034312066688122053
684,-0.0025277627958140703
685,-0.0023180964424365565
686,0.00425671104551894
687,0.006159300982290236
688,0.0018413866473973644
689,-0.0041481599678850345
690,-0.0013116526691397288
691,0.0007374581072693634
692,-0.0005556615666346253
693,0.0007940346559668111
694,-0.006681964152996277
695,0.0012556522040756291
696,0.0050646488353589016
697,0.0028745362351144032
698,0.0031257300663133907
699,0.002986199721083365
700,0.0015047064390574343
701,-0.004386754012639558
702,0.0052152077121436205
703,0.001149112650430841
704,0.001074139731626865
705,-0.003220763879784266
706,-0.00120597157418897
707,-0.004822409389220137
708,-0.004395142431633709
709,-4.1111853422267676e-05
710,-0.0032842356256880968
711,-0.004217502339318295
712,-0.004059256296051021
713,0.0016437228734000383
714,-0.0015855381567814134
715,0.006653783727600871
716,-0.0002987008176715926
717,-0.009682842943564057
718,-0.004917319157048523
719,0.004992855392067784
720,0.004631066798555657
721,0.00438579343098538
722,0.010873397363885682
723,0.005069643920702537
724,0.0006569305062252215
725,0.00035403105259631737
726,-0.0043084033797866576
727,-0.0017534641715427207
728,-0.005772314714397882
729,-1.71638269967668e-05
730,0.00574451800539706
731,0.0001080377606470645
732,0.0036345761645046465
733,0.0021758175933755744
734,0.0038860224072594183
735,0.00013019330103510897
736,-0.005780659652652656
737,-0.002814213564598487
738,0.003912710195860756
739,0.008742388965594488
740,-0.0021171871538972487
741,-0.009653382439212769
742,0.0005290860287818309
743,-0.0017171506412772056
744,-0.003264375107975976
745,0.0024124366390738464
746,0.0038723072129821312
747,0.0032079470900553695
748,0.0016337130044214564
749,-0.004085146296982525
750,-0.004198642257707124
751,-0.00464096377336279
752,-0.006361623536629445
753,-0.010519190753773479
754,-0.007815263642181415
755,-0.006296694218170388
756,8.042512510072694e-05
757,0.003960073312199364
758,-0.002673943185862811
759,0.00035812054461484624
760,0.004054221427334777
761,-0.0009383018106231353
762,0.0029930484264949885
763,0.003930551014802488
764,0.008942272688846004
765,0.012446217378952398
766,0.0030834250752287875
767,0.00810876246653028
768,0.004028647691567617
769,0.006512964899003919
770,0.001079399901581313
771,-0.004633187592703713
772,0.0018468326348959124
773,-0.0030443126291359816
774,-0.005222160907572909
775,0.0005694084002046684
776,-0.001610049151775257
777,0.0017345187572659886
778,-0.006704685081251877
779,0.0019886677537333764
780,0.0006181599593222068
781,-0.0034875873787360272
782,-0.0002516824093928508
783,-0.005884770643578237
784,0.0017683967831260356
785,0.0002348034355704378
786,0.004218523604397581
787,-0.0062508492728961165
788,-0.006196859107072867
789,0.003372922275894589
790,-0.0062089775954395415
791,-0.003498391820935408
792,-8.899566841673139e-05
793,0.00034935490518037647
794,-0.0014206207824771725
795,0.00018636376710572458
796,0.003014247294979287
797,0.00438413755257434
798,0.008992184709412276
799,-0.0060179267108938835
800,-0.002365085270356909
801,-0.0004240900986514683
802,-0.0030582730929159113
803,-0.003929974244740078
804,-0.00010127266689078165
805,0.002036593441691199
806,-0.0008688562856998625
807,-0.0016052414768977542
808,0.0061134698250150995
809,0.005759612248672977
810,0.0035958717452346106
811,0.004051095697886097
812,0.0015946273789871311
813,0.002574843479374587
814,-0.006522480008623195
815,-0.00030035984271479035
816,0.008489670161498725
817,0.004001465730737483
818,-0.00420272695904197
819,-0.0009380803129265605
820,-0.0007871558407437466
821,0.000872893431806728
822,-0.0038543023151063867
823,-0.00511827614215821
824,2.379484282242182e-05
825,0.0014426130632445048
826,0.0014101100460007102
827,-0.0026253628235778136
828,0.001870020969696639
829,-0.0021401807506357777
830,-0.002857507340889292
831,-0.0035163699823434922
832,-0.002353588195893515
833,-0.0033689704801482135
834,-0.005972797212986707
835,0.0024062466440615098
836,0.002154507551704858
837,0.0024622534266608067
838,-0.0008231119434431878
839,0.002456577524720234
840,-0.0019210138383911925
841,0.004533478061013119
842,0.000182258051876813
843,-0.0019423847579459804
844,0.0018178379024337069
845,0.006296384244424891
846,0.008607881272846906
847,0.0038941045044139514
848,0.0035251036597990547
849,-0.0027982244678685744
850,-0.006111888043283801
851,-0.005362775375070532
852,-0.0028159536151323335
853,-0.003693412858556305
854,0.006010539274209474
855,-0.0029160372691351584
856,-0.004100515065972824
857,-0.0014806833874981135
858,-0.0015169013574731945
859,0.0017464160665713315
860,-6.163667337632725e-05
861,-0.0013958215535446435
862,-0.001220293043180892
863,-0.00018132738404957535
864,0.0052616950235095505
865,0.00016451045301377372
866,0.003053554310007483
867,-0.0017906615834736572
868,0.0015393868368997789
869,0.004400984668274303
870,-0.0022254405302208295
871,-0.00418272953653215
872,-0.0010390880924885208
873,0.0036953027405096043
874,-0.0007990282534659134
875,0.0047189665009468
876,0.0013526308712682872
877,-0.002464706599236921
878,0.0045347361570126825
879,-0.0035998229195162885
880,-0.003737515581896291
881,0.0036350017091886146
882,-0.005469073539087371
883,0.0022926640369898745
884,-0.001019590384766728
885,-0.0011584996293099413
886,0.001435976137987083
887,0.00603443987076471
888,-0.00045651690314056203
889,-0.002826167380571218
890,-0.003150999091363537
891,-0.008732882980501424
892,-0.0032474886475777247
893,0.0013262727261090877
894,-0.0050707175795087454
895,0.0019750745578072555
896,0.004206117558761813
897,0.0038265055565069282
898,0.010270962919812294
899,0.0055940686962971066
900,-6.20301058010253e-06
901,0.003294895770111076
902,-0.0028937336403168593
903,-0.007507103503682289
904,0.0034957642600366877
905,-0.007587049900031629
906,-0.004916811126287257
907,-0.0013493163762134889
908,0.007323725704906974
909,0.0012089313957362449
910,-0.0016283151185919704
911,-0.008371467340252792
912,-0.000556883574189055
913,0.002133108484484081
914,0.0017987025677335426
915,0.002555935039135192
916,-0.004183576681926974
917,0.0007951203939860589
918,-0.001773970982995957
919,0.006737926406549188
920,0.0015281454218854483
921,-0.0005262996584676286
922,0.0009547010719120706
923,0.0071977155793333395
924,-0.00011546509872324175
925,0.0028222106284628698
926,0.0015222493265027648
927,-0.00027612287425124536
928,-0.0024922090193302
929,-0.0040989178531919395
930,-0.0016154286616420436
931,-0.0032610594772825106
932,-0.0008734841843590739
933,-0.004647378966126325
934,-9.537788137921159e-05
935,-0.0022733766649751935
936,-0.004012601576200809
937,-0.0002580402274654208
938,0.0016882423390291515
939,0.0007116723944676027
940,0.0021322839144285195
941,0.005590188300613512
942,0.003971419237765783
943,8.268733870000003e-05
944,0.0021570178635422054
945,-0.00484835104874244
946,0.005617382733895732
947,0.004389327419300673
948,-0.0033797940706008145
949,0.003948328545408366
950,-0.005282239810440112
951,0.0008386523972860761
952,-0.003097033090398287
953,-0.003248602880032353
954,-0.001226235789020879
955,-0.009205812090731735
956,0.005010316907832299
957,-0.0018232427551835972
958,0.002519129009747074
959,0.00230323660021119
960,0.004998371544524623
961,0.00596453845777901
962,-0.008610131559306119
963,-0.0013482191153329163
964,-0.002268300797185335
965,-0.0024784751955028127
966,-0.0030327992178544143
967,-8.433339357367259e-06
968,0.0017029059728558942
969,0.005600570646470906
970,0.0012175845676736258
971,0.0006952277878144938
972,-0.0011574793420459813
973,0.0005798342131994611
974,0.0002545786521542283
975,0.00033796729654977757
976,0.00323296098245965
977,-0.00013740195053194015
978,-0.00027836777387733186
979,0.0019163382988067754
980,0.002367798646245395
981,-0.004448776256906398
982,-0.0008623267232984594
983,0.0022152669387214595
984,0.0039786624593540635
985,-0.0043234667652143404
986,-0.000816952776303571
987,-0.0020925750123239346
988,-0.003125035035058626
989,0.0062320104718466525
990,-0.0020911932606248393
991,-0.002012854336429253
992,0.0013569815699211538
993,-0.0036295297453734932
994,0.0007272513420706721
995,-0.005894808431345272
996,0.002815997681646843
997,0.0030067021477367777
998,0.0005741869641145139
999,0.004791109806196566
1000,-0.003209017079965424
1001,-0.0015050336149526854
1002,-0.0042194159079543166
1003,0.004919245044147572
1004,0.00010056971461937063
1005,0.0003200802876383354
1006,-0.008650964071214648
1007,0.005364308626238191
1008,0.006332168117120623
1009,0.00582668775593324
1010,0.0012131929211261373
1011,-0.006349135335492664
1012,0.0037287185992297116
1013,-0.0050001549360702835
1014,0.0021670833225144355
1015,-0.0036990829880642374
1016,0.0010524254662178292
1017,-0.00029758036804291513
1018,0.004519568401778061
1019,0.0009778012454542137
1020,-0.00383437809118965
1021,-0.004880445402285554
1022,-0.004694621002184886
1023,-0.002097215650014847
1024,0.0023726545289292295
1025,-0.004935183529702854
1026,0.0012516736065973323
1027,0.003853358665561926
1028,-0.0021753034169069803
1029,0.00353464697407691
1030,-0.0012766626638136876
1031,0.0008460590891504315
1032,-0.007065191080941398
1033,0.0046264961245149425
1034,0.00690110290522761
1035,0.004974394609231354
1036,0.0011939409536813727
1037,-6.953531761470441e-05
1038,0.007254147774789067
1039,-0.0031565492158508995
1040,-0.006650072713358212
1041,-0.00118851050739416
1042,0.001016053528959014
1043,0.003998539120817963
1044,-0.0003964080916935824
1045,-0.003187532405065077
1046,-0.002942537116301682
1047,0.0006827694357969608
1048,0.0005848874897228717
1049,-0.004467134825359435
1050,-0.006291077547725776
1051,0.0032909127003171775
1052,0.0002065243804332175
1053,0.003985226741819917
1054,0.005557664489743865
1055,-0.0035665808614091434
1056,-0.0012096656576612245
1057,0.00031877872507657737
1058,0.0023450938409396768
1059,-0.0004004831735955599
1060,0.0014951396464841886
1061,0.0014071885804295128
1062,-0.0015428464499385678
1063,-0.0023831710429891174
1064,0.0019372167011845725
1065,-0.004068431452531652
1066,-0.0031674290964680395
1067,-0.0015538138597895618
1068,0.0060770938113808145
1069,-0.0005134367138288926
1070,0.0004974625837484946
1071,0.007035369588648174
1072,-0.0007559830433906591
1073,-0.001672949834534537
1074,-0.0010092391429987824
1075,0.001062336071925885
1076,0.0031450785382790246
1077,-0.002639912521076887
1078,-0.006509543746963346
1079,-0.003343560558148594
1080,-0.005430920594697996
1081,-0.002726742494159948
1082,0.002986364205236342
1083,0.0001893619351158067
1084,0.002146444864459359
1085,0.004087636955932674
1086,0.0033829000461317394
1087,0.005269656425653682
1088,-0.0013537826248465126
1089,0.0007212173940450064
1090,-0.001105810012578973
1091,0.009432857976399
1092,-0.0016002835699645305
1093,0.0005457244036837366
1094,-0.0013702026302440601
1095,-0.006456942209350046
1096,-0.0005754541342517655
1097,-0.004546681522515062
1098,0.002230824589740045
1099,0.001256624972550891
1100,-0.00373819416051955
1101,-0.007013688180838041
1102,-0.000775931689125214
1103,-0.0008403174066515806
1104,0.0008396340070221959
1105,0.00017753725219801786
1106,0.0039059297274246438
1107,0.0027975374672369697
1108,0.006815000637502352
1109,0.005459104148314768
1110,-0.0023175130334543983
1111,-0.007213718062510497
1112,-0.0012317561918798563
1113,-0.0030723198370946666
1114,-0.0027824038470459014
1115,0.004279757110162533
1116,0.009829253516001184
1117,0.006260222145634802
1118,-0.0020122044455095677
1119,-0.0024159691908402295
1120,-0.0072674551061552625
1121,-0.005775551361364093
1122,-0.008229826087914161
1123,0.0008041246351755908
1124,0.003805354369427266
1125,0.0056464909343090655
1126,-0.0023753860432553283
1127,-0.0014893301853781899
1128,0.0045031795425297975
1129,-0.0027760049528109208
1130,-0.0037520509120840765
1131,-0.002245572221455723
1132,-2.687328946067262e-05
1133,0.005209368499403233
1134,0.0016180331325415555
1135,0.0034638550099954143
1136,0.006718844263432864
1137,0.0015284701295358288
1138,0.003528355144433783
1139,0.00012344981627825102
1140,-0.0010083498954697404
1141,-0.002831485671405707
1142,0.0014039821236811866
1143,0.004731407300371612
1144,-0.0029035878162864143
1145,0.0007566748167367214
1146,-0.0024099679225568597
1147,-0.010474640654540766
1148,-0.0010928401689466825
1149,-0.0008144349539388127
1150,0.001537868284405445
1151,-0.005033290052049869
1152,0.0006023491363008528
1153,0.007301810383955341
1154,-0.0030015403692304227
1155,-0.0011055717871303692
1156,0.0005630016840446547
1157,-0.005046795956150178
1158,0.00030026388007150726
1159,0.0030223245530933036
1160,-0.002490796193738631
1161,0.0067079889895371595
1162,-0.0015038065796443064
1163,-0.0037812870718058724
1164,0.002100918799189751
1165,0.000560130277906903
1166,0.003331414979629704
1167,-0.004223856843279639
1168,-0.002974414225830245
1169,0.0014077615873265923
1170,0.0009869494655833297
1171,0.003836941896339865
1172,-0.0018993713117482387
1173,0.004548051341351914
1174,0.00354547010619232
1175,-0.0008227542537715751
1176,-0.003161121427041563
1177,-0.000816796528256206
1178,-0.0035460685249617697
1179,-0.0006280388162206597
1180,0.008113583364098998
1181,-0.003496903031632966
1182,-0.0052528334795844955
1183,0.005279838574039005
1184,0.0020724263155680357
1185,-0.0030406093712621656
1186,-0.0009874116066391127
1187,-0.006414315869091833
1188,0.0025924152405190446
1189,0.001841767152780149
1190,-0.0009286324022430466
1191,0.005720085156038086
1192,0.008231581673426573
1193,-0.0008870089565149652
1194,-0.004354205659523882
1195,-0.005635565285406605
1196,-0.004982737778775569
1197,-1.5520199234484583e-05
1198,0.004228839243263748
1199,-0.004358147920009653
1200,-0.002907390861773427
1201,0.0038313585981769645
1202,-0.0018197028382398442
1203,0.007288789572207848
1204,-0.0035452840319562294
1205,-0.0010095028754890266
1206,0.0011790735806183148
1207,-0.0006089277014823483
1208,0.003368649935305358
1209,0.0016741575028340174
1210,0.003675591859749027
1211,-1.3840979053178146e-05
1212,-0.0035367749399945253
1213,-0.004967661393604936
1214,-0.005990843557881956
1215,0.0005708858689979623
1216,0.002743570589602739
1217,0.0005858846028167913
1218,0.004388347726857435
1219,0.00033091007312882094
1220,9.009641943643135e-06
1221,0.00034650875807879303
1222,0.00011580532433977907
1223,0.0002925549697634002
1224,-0.0042808247517925405
1225,-0.0038441979334861865
1226,0.001477382402975888
1227,0.005804624363389222
1228,0.003510879677347834
1229,0.0003113895090555794
1230,0.006227760368007747
1231,0.0015703976810879207
1232,-0.002828899909476339
1233,-0.00672516021107596
1234,-0.0019053770228825116
1235,0.0015757628959614644
1236,-0.001655636753759038
1237,0.0030892969883721715
1238,-0.0015322107937741315
1239,-0.00341237977892317
1240,-0.0030864592782021364
1241,0.003118984081740343
1242,-0.0013726691736912506
1243,-0.005400870081605705
1244,0.004790040166515775
1245,0.0022470816921900047
1246,0.002111727451524911
1247,0.003358349932337373
1248,-0.00201799289951699
1249,-0.0031815841830065347
1250,-0.0011029518562245752
1251,0.003117800638720713
1252,-0.00083389141452638
1253,-0.0010932092711421265
1254,0.001872720785009249
1255,0.0012833351511243206
1256,0.0004392384006191149
1257,-0.004498053007699416
1258,-0.00659829917746074
1259,0.0007654788983419824
1260,0.002238120360225193
1261,0.0006297817623090226
1262,0.004013873480104129
1263,0.004717662369939003
1264,-0.0005901331677449391
1265,-0.002923324540583498
1266,-0.002280038673833331
1267,-0.0015209796237155137
1268,0.0018410060571482385
1269,-0.002977376183595889
1270,0.0037319770718745584
1271,0.0011857576234392576
1272,0.001515781504858509
1273,-0.0035521916288493664
1274,0.00039492114184896347
1275,0.008274478040112512
1276,-0.003353098112115394
1277,0.003811020585080903
1278,-0.0024531313637561423
1279,-0.0035820995450261926
1280,0.005381175231947201
1281,-0.0005134353686107821
1282,-0.0032084397738563744
1283,-0.0008689294256819325
1284,-0.00242807936506382
1285,-0.005331765880257512
1286,-0.0012694916931759682
1287,-0.0019638297911439995
1288,-0.002651210791756552
1289,0.002628662125405754
1290,-0.0028804696498258547
1291,0.00031820766096950573
1292,0.0001745328336234253
1293,0.0015314314784792872
1294,0.001900396858518819
1295,-0.0002559253861641256
1296,0.0006218261474614847
1297,0.001426334971246064
1298,0.0023432153933202575
1299,0.004227066141543067
1300,0.0005272463137960728
1301,0.007085337827125462
1302,0.008166642929056224
1303,0.001835617723071386
1304,0.0036386169434995744
1305,-0.003735730599448624
1306,-0.00367511291714258
1307,-0.0036249179606598113
1308,0.002097407600408028
1309,0.0007646310225536456
1310,0.0016370762596779826
1311,-0.006635372870055523
1312,-0.0010630848459279724
1313,-0.004717092492863624
1314,-0.0025173872786514173
1315,-0.0006822206311493514
1316,-0.005447306372467042
1317,-0.0026945979805577634
1318,-0.0058157326443448384
1319,-0.007106519473645259
1320,-0.0021112703820406475
1321,0.008060436858426227
1322,0.003913093330561726
1323,0.0006789732861703993
1324,-0.002252148874890187
1325,0.006592869169918259
1326,0.001623478088798586
1327,-0.000593402411828205
1328,-0.0007185950742496436
1329,0.0030209276149469697
1330,0.002684255351119316
1331,-0.0047568351638541985
1332,-0.002144698496634503
1333,0.008335371218726774
1334,0.008572737310791698
1335,0.0012581664094179351
1336,-0.003199428342351776
1337,-0.004189778710656688
1338,0.0008698685841068091
1339,0.0024986746436869278
1340,-0.004411371042957165
1341,-0.005576763343267652
1342,0.0010621120480364867
1343,0.006793063697018257
1344,0.002797871700832205
1345,6.684972189063311e-05
1346,-0.0011346665459314332
1347,-0.001039802133338926
1348,0.0015897988144559626
1349,-0.0018317936309629962
1350,0.00035201938040316065
1351,-0.002099012689682409
1352,-0.00037039424579189684
1353,-0.0019945498323127872
1354,0.001492640969509059
1355,-0.0018326218761163977
1356,0.004206821295085539
1357,0.00043815534066027426
1358,-0.0067211793682307504
1359,-0.002366673211843792
1360,-0.004040046472423156
1361,-0.0031438048114255986
1362,-0.010609864975738112
1363,-0.0019590548005998486
1364,0.004205297481837452
1365,0.005377391998164683
1366,0.00616234805312546
1367,0.007952669626147005
1368,0.005858027071760605
1369,-0.0012991570258592856
1370,-0.0015684619866662385
1371,-0.0007932133108963409
1372,-0.0026144392162161974
1373,-0.0047094451261488045
1374,1.738699689449695e-05
1375,-0.001258887478851339
1376,0.0013759061447404467
1377,0.0073671404637050885
1378,0.00569942292657929
1379,0.0053187394154579236
1380,0.0020257713544525133
1381,-0.001315374290267281
1382,-0.00014345463319289514
1383,-0.004561889603093943
1384,-0.0012390326072183487
1385,-0.0010674543629215754
1386,0.00022885616065594205
1387,-0.006118333482289684
1388,-0.0034268585964552936
1389,-0.0005359554483883294
1390,0.0016835089663440111
1391,-0.00015717067766551213
1392,-0.0052315938942534244
1393,-0.0015532280317856612
1394,-0.0030991571793552632
1395,0.002776657031547324
1396,-0.00828935422105628
1397,0.0029390734924389095
1398,0.006483064662145019
1399,0.0018993987053806984
1400,-0.0006274888301564755
1401,0.001482500157920173
1402,0.0029368669127595396
1403,-0.0013879733617466333
1404,-0.002160663588189513
1405,0.00226158595827548
1406,0.006850195890864272
1407,-0.0014389927695128788
1408,0.0013168770569432532
1409,0.0015838907458066327
1410,0.0003986863006451846
1411,-0.003978645062596639
1412,-0.002051792447680067
1413,0.007485549241075339
1414,0.0007727769305134052
1415,-0.004214428750023882
1416,-0.0019368389561578141
1417,-0.0023999817853344006
1418,0.003726900982372261
1419,0.0028754440759842176
1420,-0.0013247117847664915
1421,-0.006091793383478039
1422,-0.0008435802189520215
1423,-0.004829255981728975
1424,-0.0003600223832797324
1425,0.005704328015728394
1426,-0.0028933979139530927
1427,0.0012082520952119476
1428,0.0010223319464795991
1429,0.005344220573936679
1430,0.002354420356839513
1431,-0.004955896364398301
1432,-0.0013512050182590213
1433,0.0022189531842590794
1434,-0.0010760617904447406
1435,0.0029989283674350014
1436,0.0012772681034407566
1437,-0.0019113399538659053
1438,-0.0020667865592791214
1439,-0.0038590952295752745
1440,-0.0008555909221716843
1441,0.004712667934493123
1442,-0.002778101682176298
1443,-0.009624049689533056
1444,-0.004280118484929466
1445,0.005588092113108717
1446,0.006439610639194189
1447,0.0002898027226544246
1448,0.004209561252595443
1449,0.0020904192857827157
1450,0.0022871453924937744
1451,-0.0019336058240701382
1452,0.0011123007934074024
1453,-0.005768399840824554
1454,0.0006163348431972894
1455,0.00019126250893897016
1456,-7.22576369960471e-05
1457,0.001000208838779949
1458,-0.0005786661862632724
1459,0.003612870840667951
1460,-0.0010964720976053182
1461,0.0021089246349424474
1462,0.0008814494265503067
1463,-0.0035600649567611286
1464,-0.002585624315295139
1465,0.010102347601781983
1466,-0.002633585785005493
1467,-0.0029952268162261406
1468,-0.0016777001328564323
1469,-6.0383623965599466e-05
1470,0.0011460982777926967
1471,0.0009947710282515523
1472,-5.7420981406253874e-05
1473,-0.005509318896324441
1474,-0.009020599729085041
1475,-0.002556425163903959
1476,0.008505624204014375
1477,-0.0015660147296424256
1478,-0.0021171162068410014
1479,-0.0023533319349304544
1480,0.002386370511545579
1481,-7.131075168750542e-05
1482,0.0020316880585554264
1483,0.003487734571624688
1484,-0.0008431615662385043
1485,-0.003908975338993832
1486,0.002938560548040439
1487,0.004373212286452098
1488,0.0015898663224057034
1489,0.003312768333907236
1490,-0.0016873974850740714
1491,0.0024528507780745487
1492,0.0013382502785536116
1493,0.005776750046660004
1494,-0.0023916777303011304
1495,-0.002575139467512399
1496,0.0009364897821912462
1497,7.095452512854983e-05
1498,0.002067830669178673
1499,0.003072363437574054
1500,-0.002709436061540724
1501,-0.007267349432071636
1502,-0.0018517224046305054
1503,-0.0022825118995475364
1504,-0.003520798554702327
1505,-0.001605090789780236
1506,0.00744517535287329
1507,0.002670739620346245
1508,-0.0023294459422974366
1509,-0.004287226187158458
1510,-0.004065501017861549
1511,-0.008804952075948669
1512,-0.0013403354549339531
1513,0.008625303114915467
1514,-0.0049775314600677845
1515,-0.003878783576208626
1516,0.0062588989989360915
1517,0.0037998245498355784
1518,-0.0007001854732496763
1519,0.005133431587735558
1520,0.004917061184963011
1521,0.002289927306114363
1522,0.00013851382811773394
1523,-0.0016087170961365943
1524,0.00021634133085032814
1525,-0.001071412671428817
1526,-0.002012130995668675
1527,-0.0027087627583692025
1528,-0.0002971557060405649
1529,-0.0029839131864825893
1530,0.005212642099827952
1531,0.00160063180703446
1532,-1.2200493801741222e-05
1533,0.0038141003314421697
1534,-0.007275302904602937
1535,0.002541088066460447
1536,0.006024520573657258
1537,0.0006400367190442357
1538,0.00017214727324519653
1539,-0.0025612073277721074
1540,-0.007022357661854214
1541,0.0012310154230401795
1542,0.0039084350231834795
1543,0.004345930808236005
1544,-0.0007536067862442541
1545,-0.0038665202817984258
1546,-0.000252603968639192
1547,-0.0029010605483800614
1548,7.095017939225817e-05
1549,0.0001695881607211838
1550,0.0044840737762679795
1551,-0.0032639573711710336
1552,0.0036726728855304555
1553,-0.002273956871407623
1554,0.00016841675318788468
1555,0.005363076048744827
1556,-0.006806648201473803
1557,-0.006994824820895
1558,-0.0016987356059577586
1559,-0.0027862773215260803
1560,-0.0034036153347669195
1561,0.002483000585339004
1562,-0.0037109673250398005
1563,0.00288104875992096
1564,0.001445046513532361
1565,0.007039304300623053
1566,0.0035176789752670275
1567,-0.0012192426605126547
1568,-2.3319306520079228e-05
1569,-0.006971345489458339
1570,0.0011676937859506319
1571,0.0049621856419673465
1572,-0.0011453489839225416
1573,0.0012357358651363393
1574,0.00045162857926071137
1575,0.0014665235247778591
1576,-0.0009640158683045293
1577,-0.0029613517465620545
1578,0.005651246760896624
1579,0.006127308164817201
1580,0.005014341766214267
1581,0.00902182202133762
1582,-0.0013702427562962303
1583,-0.006963992460488304
1584,-0.0014635336245338911
1585,-0.004921507005767704
1586,-0.0036379239589892512
1587,-0.0009013171403458153
1588,-0.0020738919607041304
1589,-0.007803486382788908
1590,0.0018168624630108907
1591,0.005637731528426359
1592,0.00039536863073153135
1593,-0.0021964557942890425
1594,0.006586609971353538
1595,0.0005616468741501211
1596,-0.005300824304737909
1597,0.00017449027643881912
1598,-0.005767419080011497
1599,0.00460751227771316
1600,0.003554684108492406
1601,-0.003554346288903742
1602,-0.005482590780550283
1603,-0.006276218364575676
1604,0.0005391018552623351
1605,0.006798551227531019
1606,0.0005808995586437122
1607,0.0008504824562640973
1608,0.000884038708203359
1609,-0.006568091467505362
1610,-0.005006044149308301
1611,0.007213595589970894
1612,0.010331701765436348
1613,-0.0016539611849492406
1614,-0.0057972510266025325
1615,-0.0002777340707671976
1616,0.0009642504176187276
1617,0.00023785354574897347
1618,0.008628139537394348
1619,-0.002330037359307667
1620,-0.00017038087011698316
1621,0.001695373098048715
1622,-0.0002648019062255792
1623,-0.0010628230467694972
1624,0.004152078415287566
1625,0.0041253176101320585
1626,0.00041068491845488997
1627,0.0036176004164589952
1628,-0.0020327126237178524
1629,-0.006264720326998478
1630,-0.0026582213426910896
1631,-0.0032540449566575277
1632,-0.0005802550201203429
1633,0.0009362067681428273
1634,-0.008773915384923031
1635,-0.0009224163668293817
1636,-0.006540980851947066
1637,0.0009453453929721637
1638,-0.0040428791258188615
1639,0.004228960782920333
1640,0.009191538838445385
1641,0.00213025448625684
1642,0.0053173906508582
1643,0.00507658449625758
1644,2.0678510240623726e-05
1645,0.0010753496126702181
1646,-0.004669678951717963
1647,-0.007652524622423329
1648,0.007905029648475882
1649,-0.0025473319755617606
1650,-0.0031242142348945623
1651,0.0030360244166577907
1652,-0.0015381843596710635
1653,-0.0037960128798066994
1654,0.004379477177059487
1655,-0.00017235308473863894
1656,0.0018191354798588405
1657,-0.0028269801155050367
1658,-0.0018550478292530597
1659,-0.001099128604421207
1660,0.0010501258367390312
1661,0.0021191533224793778
1662,-0.0024632533887911073
1663,0.00139487841336424
1664,-0.0015560674134235666
1665,-0.0035126062151805615
1666,-0.00048318711319688887
1667,0.0015913623896656823
1668,-5.0888973179136904e-05
1669,0.0017300950851920748
1670,0.00018313105327267577
1671,0.0016278005880705788
1672,-0.0019300032945276796
1673,-0.002858327362883408
1674,4.675710665264475e-05
1675,0.006688189854704212
1676,0.004925505259467844
1677,0.0008267581981145217
1678,-0.0023254024502315576
1679,0.00033452465171286694
1680,-0.0031896258806885878
1681,-0.002141300909321688
1682,0.00826363315524713
1683,0.007236374045832638
1684,-0.0018426904753165788
1685,-0.004985062803090033
1686,-0.005919242548605442
1687,-0.000995675897695109
1688,0.0018904188303026405
1689,-0.00831331618768701
1690,-0.0007325786983389398
1691,-0.0056780377249924345
1692,0.005006744048084309
1693,0.005352542248221145
1694,-0.002617355888624391
1695,0.0058353022354099395
1696,-0.0016245856576016914
1697,0.0006343723361148575
1698,-0.000673721086330608
1699,0.00019574835077616412
1700,0.0021498450675964693
1701,-0.00030186872251678626
1702,0.0008975232895708993
1703,0.006060459371433263
1704,-0.00486604779887421
1705,-0.011726445890961737
1706,0.0032706282606129507
1707,-0.0008034440793565113
1708,-0.00037759695131269096
1709,0.00048165097435249465
1710,-0.002031864205947625
1711,0.00356780928485159
1712,0.00184912522524356
1713,0.004285821086318445
1714,0.0010280009704777878
1715,0.0037675011369686156
1716,0.004689916232549556
1717,2.0076667765774048e-05
1718,0.0032571235468984317
1719,-0.008866848934086888
1720,-0.006561670977975045
1721,-0.0043896166490263976
1722,-0.001387444681369479
1723,-0.0014702529792486076
1724,-0.0031426011847462965
1725,0.002860563637583507
1726,-0.001353689351719643
1727,0.004649577348430209
1728,0.004082806848198286
1729,0.0043879238138574425
1730,-0.0008355132084695641
1731,-0.003041859555953517
1732,0.0039668566590363484
1733,-0.002036150682836947
1734,-0.00557465807268878
1735,-0.0028037865147663467
1736,-9.353170458600152e-05
1737,-0.0004965553786003829
1738,0.0026113532041542797
1739,0.007319497902604727
1740,0.000680948480108641
1741,-0.0035042709974155784
1742,-0.002056107855627807
1743,-0.003413631862463658
1744,-0.000593063539027586
1745,0.001809834656620787
1746,0.0022732923160891016
1747,-0.00047513242103776505
1748,0.0011846333051829588
1749,0.007487954156748986
1750,-0.002384662340260837
1751,-0.0009712807518167024
1752,-0.0011104682120984507
1753,-0.0005454387728590481
1754,-0.006878541778473411
1755,0.00017539747622508962
1756,0.005104311170401237
1757,0.0019859517025828943
1758,0.003309832208090757
1759,4.614403056412732e-05
1760,-0.002461891315637215
1761,-0.0030101199383202135
1762,0.008781311761428046
1763,-0.000465031468841505
1764,0.0034684521580558804
1765,0.0006542186870531755
1766,-0.0023620549330777268
1767,-0.0033413252584742975
1768,-0.007010389961912309
1769,-0.004369515120564966
1770,-0.0034338551574415403
1771,0.0026117918670310785
1772,0.0008330234066003615
1773,-0.003485996859580953
1774,0.0010035379593133723
1775,0.0009858879174709373
1776,0.005225130791769798
1777,-0.0016732238513886746
1778,-0.004615508281294083
1779,0.00254500069721314
1780,0.00236597785645887
1781,-0.0004894860675380575
1782,-0.0011974261763141557
1783,0.007347342261085491
1784,-0.001049666957604405
1785,-0.001273190682963326
1786,0.0017984728555196826
1787,0.0012286436451346599
1788,0.0004243178904208894
1789,-0.002291501141957057
1790,-0.002379430778553673
1791,-0.001202253927104273
1792,0.001133031715789737
1793,-0.0006293521363606759
1794,0.0003976147959734574
1795,-0.00018992364898845135
1796,-0.0022542893041656792
1797,0.0003056577049550379
1798,-0.0008729536111640561
1799,-0.0016545374905224675
1800,-0.0019950233921327033
1801,0.006816662547096514
1802,0.004054651254684928
1803,-0.0040483409446353084
1804,0.00021752674338179796
1805,-0.003942898510722621
1806,-0.005845446746601268
1807,0.004088630668713206
1808,0.003172271996564101
1809,0.002427195278144268
1810,0.009276819119361197
1811,0.0005566222247531793
1812,-0.00283220193831513
1813,-2.3570165107848068e-05
1814,-0.0016184224961158632
1815,-0.00044791725340537214
1816,0.007992344101829198
1817,0.0007576162672176092
1818,-0.006990570936491903
1819,-0.0026446851836378566
1820,-0.0018607998825694444
1821,-0.004068526896966226
1822,0.0010167701004069373
1823,0.004671742134152866
1824,-0.002851835219489394
1825,-0.0028791644637294316
1826,-0.0016346436148633268
1827,-0.008154514599451948
1828,-0.004567040726784896
1829,0.0024706250354418167
1830,-0.0008949155089258316
1831,0.0029861135831447776
1832,0.007916862563909284
1833,0.002357491116622267
1834,-0.002456580008640411
1835,0.004511128308797371
1836,0.003961614465442178
1837,-8.143909388135667e-05
1838,-0.00013457448329892187
1839,0.0022526203738356364
1840,0.006526070922408347
1841,-0.002157359568029267
1842,-0.0003565416633727718
1843,0.0005998955423294639
1844,-0.004075072416086233
1845,0.0018679675896611054
1846,-0.0033071104255577273
1847,-0.00025878137954875573
1848,-0.004629047093949862
1849,0.0009426341810450396
1850,-0.002297932504697923
1851,-0.003332385838354855
1852,0.0018624169606143905
1853,-0.0029517767454655987
1854,0.0015530399026049847
1855,-0.0023356887109353876
1856,0.0013328748093396764
1857,-0.006028331201146957
1858,-0.0006884127584138536
1859,-0.006304783941859186
1860,0.001206137170775383
1861,0.004004272764590328
1862,0.00164656107753983
1863,0.00866915384299817
1864,0.010061678378929184
1865,0.002204051619252804
1866,-0.007672406052005183
1867,-0.000271332489754892
1868,0.00290091907283999
1869,0.006943224084046496
1870,-0.006566321135368911
1871,-0.0014747296868266929
1872,-0.0007601376143491611
1873,-0.003377205973123466
1874,-0.004245913114891692
1875,-0.003401143840045284
1876,0.0018348059149083037
1877,0.00806392471132419
1878,0.012672107328240546
1879,0.0021595356890978046
1880,-6.634798741916772e-05
1881,-0.005415035872169394
1882,-0.008282590095647841
1883,0.0011110251445232925
1884,-0.006754987773294786
1885,-0.007024554882927479
1886,0.0025446575574688216
1887,-0.0034149389105130523
1888,0.006718821133127808
1889,0.0009092295433538213
1890,0.00289007699805299
1891,0.0007895863348015529
1892,-0.001838365996182134
1893,0.0009603522222321973
1894,0.0026777668132711248
1895,0.002884075771136166
1896,-0.007112509694059465
1897,-0.00047765826523099575
1898,-0.0037866466910676244
1899,0.00030146520430406054
1900,0.0007791478315380199
1901,-0.003889865618217076
1902,-0.0011098608916713382
1903,0.001805711379649487
1904,0.004770881545343309
1905,0.00401803233460039
1906,-0.002258741925873666
1907,0.0003655593044731252
1908,-0.0005572680806651756
1909,0.002970066972171819
1910,0.004677562815522775
1911,0.001002712016172802
1912,-0.00030777952249655405
1913,0.0020947140081508846
1914,-0.0006619332028030434
1915,-0.0002366672762328442
1916,0.001465258342334506
1917,0.0004073462577876318
1918,-0.00022710852901867192
1919,-0.008518900865782223
1920,-0.009319157621722633
1921,-0.0018056968732455322
1922,0.001292081784060652
1923,0.0013595701575425103
1924,0.0018185431313925
1925,0.00260602991873403
1926,0.004020546049879815
1927,-0.001968546208973676
1928,0.0024648070337809636
1929,-0.0038700741715989723
1930,-0.0007109745843731953
1931,-0.006038142827143564
1932,0.0026901154346179457
1933,0.0007452780628271222
1934,-0.0008515762132147737
1935,0.004398741798054053
1936,0.003929549054285181
1937,0.00745973804206924
1938,-0.003927308798637498
1939,-0.0008434643790287619
1940,-0.00017033747298259364
1941,-0.002639492936636626
1942,-0.0005307039742463576
1943,0.001460717082678805
1944,-0.0009481085847643528
1945,-0.0034002408235045186
1946,0.0036578228740911057
1947,0.0035062908761297213
1948,-0.008652623463660462
1949,0.0003851030529600126
1950,0.004810488952574435
1951,0.00035990062049521057
1952,-0.005175218402811729
1953,0.000874187901512103
1954,0.0020257284315909506
1955,0.005013228288466975
1956,0.000324780761908121
1957,0.0037195121976077465
1958,0.003680719309391537
1959,-0.004882798583110439
1960,-0.003929484899628771
1961,-0.0035836080321771284
1962,-0.0024467458110495775
1963,-0.00023782164993899763
1964,0.0008356593609565267
1965,0.0011242688151931902
1966,-0.004411023108222239
1967,-0.004809952495773121
1968,0.0011451960982375529
1969,-0.0025620541858374854
1970,-0.002709358343593529
1971,-0.002768654429440111
1972,0.007554141350635008
1973,-0.0005002361596003393
1974,0.00028786603930954294
1975,0.003513652466940919
1976,0.0011431892169568598
1977,0.002781570182358516
1978,-0.0007572238224387556
1979,-7.938755005780854e-06
1980,0.0009702170445831243
1981,0.0009188386358390966
1982,0.00390509478608894
1983,0.0032350370500626377
1984,0.0021621056003616433
1985,0.003667970108406902
1986,0.0005939354184488661
1987,0.0007728387054599904
1988,-0.0026830948527758157
1989,-0.003081496366476374
1990,-0.0015331539194000966
1991,-0.00020775876748119117
1992,-0.0009882703917566647
1993,-0.005647016715516978
1994,0.001962972589032875
1995,-0.007473321884975308
1996,-0.003348324485493331
1997,0.0046107679789928555
1998,0.0007328421025825267
1999,0.0007241573588754897
2000,0.0004707928245581989
2001,0.005498280433429692
2002,0.00422779528873428
2003,0.004203087924768415
2004,-0.003949934623050537
2005,-0.003601502169598576
2006,-0.006903418629971693
2007,-0.004233696915765942
2008,0.00424496565952784
2009,-0.0021003047939191395
2010,0.004441332348598664
2011,0.00585541834119624
2012,0.0008700838485430481
2013,-0.0002257533537538773
2014,-0.0009913510083143064
2015,-0.0009184506873248484
2016,0.002534761374573705
2017,-0.003657146582468976
2018,-0.005128552555562639
2019,0.0005974400993069172
2020,-0.008180860169792187
2021,-0.0035739155082497387
2022,0.0011678527816040537
2023,0.0037961789926039278
2024,-0.0035625653992889276
2025,0.0005694712637571379
2026,0.0019484266725563696
2027,0.0010883690737637525
2028,-0.004260256220952366
2029,-0.000428948378541719
2030,0.007426883101655063
2031,0.002857788495285349
2032,0.002978161966243967
2033,0.0062751128604027215
2034,0.002341563789457879
2035,-0.002297769456422523
2036,0.002076121921266303
2037,-0.0018388732306018367
2038,0.005994379738112467
2039,0.002527875942928778
2040,0.00180974193557342
2041,-0.004955623244434482
2042,-0.004885198423948586
2043,-0.009644005616619569
2044,-0.0002757744400394332
2045,0.0052676758355123055
2046,-0.0011848859847891132
2047,0.0005285749879188114
2048,-0.0036270994113104284
2049,-0.0015607481348252038
2050,0.004767509405536119
2051,0.0017225259134091408
2052,-0.0013028237102725125
2053,0.007693170947592887
2054,-0.004738430339642597
2055,-0.00620135868089681
2056,-0.002665907000708987
2057,-0.005098264886047643
2058,0.003439356666171644
2059,-0.003813013960819447
2060,-0.005142807490917984
2061,0.0072449749941388124
2062,4.358224991715502e-05
2063,0.004651718554546812
2064,0.00264894711030982
2065,0.0024300024034147917
2066,-0.0009097956615572219
2067,0.005429584373917678
2068,0.0017085956834867735
2069,-0.0012207214446607927
2070,-0.003691499601182399
2071,-0.008574414373443282
2072,-0.004848661712491332
2073,0.0007149139313442163
2074,0.004327093338511652
2075,-0.0020687141283557385
2076,0.008454797744202172
2077,0.0009628674973021657
2078,0.0021817225669059203
2079,-0.004258734403192068
2080,-0.0009111863085795781
2081,0.007489945476210764
2082,0.001366947406237341
2083,-0.006189754676803559
2084,-0.0016060140512024843
2085,0.0018161489453986952
2086,-0.0010136316823152035
2087,0.007520123275153641
2088,0.003227759599300704
2089,-0.009339738945415753
2090,-0.0012042827216406675
2091,-9.980144209876043e-05
2092,0.0029600864666896017
2093,0.0018376772173953762
2094,-0.00707954810716528
2095,0.0008303573345048885
2096,-0.0018925798495133938
2097,4.093175050314587e-05
2098,0.003126091507040756
2099,-0.005097879141098991
2100,-0.00356589846941739
2101,0.000531743923388197
2102,-0.0018867322356841878
2103,0.0011466439109345042
2104,-0.002861724642744156
2105,-0.0027857348889237365
2106,-4.048064368101546e-05
2107,0.0027404126718483662
2108,0.001368675932363261
2109,0.007323472213639096
2110,0.0038496265103973807
2111,0.001389545028291951
2112,0.0024261327636343807
2113,0.0025906840596078276
2114,0.0011383167586380815
2115,-0.001954842342711703
2116,-0.0017467007231507271
2117,-0.0038223174253040008
2118,0.003981266864281285
2119,-0.0023094226654671868
2120,-0.00734852917811259
2121,-0.0048757408535904274
2122,0.004421594179620689
2123,0.003189734774472328
2124,0.004441604373023316
2125,-0.00022635365103094822
2126,-0.0051848685468511065
2127,0.005452660176931622
2128,-0.0004940084053102426
2129,0.002533692337172074
2130,0.0017865488735326167
2131,0.00031458178227683313
2132,0.0002642575977858611
2133,-0.0010379949983587008
2134,-0.0006125721648055603
2135,-0.0017215228508632033
2136,-0.003210985990748116
2137,-0.0017325129475753275
2138,-0.0016477150972964982
2139,0.0006572398768984215
2140,0.005935741441984854
2141,-0.005611692828540595
2142,-0.0022107831918072697
2143,0.0016330777914023336
2144,-0.0016805801506461502
2145,-0.0017642385116523954
2146,-0.0009021907082587127
2147,-0.000755240305716413
2148,0.0019224983424772435
2149,-0.00016243232038745496
2150,-0.005853743319890619
2151,0.0008835078719227531
2152,0.0049190620983968715
2153,0.0008454506984411601
2154,0.002671076634319483
2155,0.003029301363456016
2156,0.0009297881245126701
2157,-0.0008203493843624045
2158,-0.010972999780759472
2159,-0.003740902852318668
2160,0.00577818482183474
2161,0.010403701926646532
2162,0.000974163073449193
2163,-0.004498474667178689
2164,0.005977707688263425
2165,0.0019784989871581412
2166,0.0002458833211955603
2167,-0.0018384342947062645
2168,-0.0002806080644586432
2169,-0.003412012925126007
2170,-0.00044961666392021385
2171,0.0030972365550246605
2172,-0.007581552145451552
2173,-0.0004487647098390859
2174,0.0016580854537245615
2175,0.0019344168397162848
2176,0.003478146249260003
2177,0.0024260810654960323
2178,0.0013304931084632474
2179,-0.006803424459129196
2180,0.002747949747037743
2181,0.0030306937226473405
2182,-1.8464667011046376e-06
2183,-0.003901390239594262
2184,-0.003370693594220827
2185,0.004749681660124457
2186,0.0015608353141602742
2187,-0.0056201695437333825
2188,-0.009202143188747212
2189,-0.00653260784408502
2190,0.001012067607086808
2191,0.0007938989708157224
2192,0.005664559797280149
2193,-0.00022409891608670893
2194,-0.0040055223658750656
2195,0.00473362688965631
2196,0.0007661454808835268
2197,0.008598295277479365
2198,0.002574673341334508
2199,0.002137013435359122
2200,0.0031200675308547636
2201,-0.0038290363590111932
2202,-0.001378524696305854
2203,0.0007751395321473724
2204,-0.0036129572454003667
2205,0.007384466033358082
2206,-0.0024097846050062707
2207,-0.004305545850577845
2208,0.001435745732782055
2209,-0.0007294487873307238
2210,0.0007103331216565837
2211,-0.0013277429024959745
2212,-0.004101030815107935
2213,-0.003417606539098045
2214,0.0035470663115295094
2215,0.00013364093673642018
2216,-0.0022910551413637334
2217,-0.004538214979558442
2218,0.002523327824109795
2219,0.0027223731727902285
2220,-0.0002478562515091029
2221,-0.000738433903337922
2222,0.0032239785727421356
2223,0.004172653202646203
2224,0.001798305704002981
2225,-0.0009709224194513616
2226,0.0031710957922037293
2227,-0.0013587146532998721
2228,-0.003488915746755978
2229,0.003390156501751086
2230,-0.002060809093326064
2231,-0.006155356235436278
2232,0.003968276474531972
2233,0.0032334882495167992
2234,0.0010889321624503933
2235,-0.003953958521823281
2236,-0.00247993146360616
2237,0.00017176776524481605
2238,-0.0018293878255987482
2239,-0.002211540162062435
2240,0.0011443653828970687
2241,-0.0029582754780672627
2242,-0.0019523413803693122
2243,0.002118639806470682
2244,-0.0011064176502716405
2245,-0.004356467629841746
2246,-0.0021751060118612754
2247,0.004986865682648405
2248,0.004001367693514348
2249,0.00412949805326062
2250,-0.000446190307957596
2251,0.0011702864898800562
2252,-0.00018881734618400592
2253,0.008512267433018417
2254,-0.002872322629179089
2255,0.0017157064360238793
2256,-0.0012391106838697263
2257,0.004486795283700907
2258,0.0016951057175760235
2259,-0.004492436321006853
2260,0.0010345573292893043
2261,0.0026080109220236133
2262,-0.002155270252050305
2263,-0.010255105969034029
2264,0.00640124115217752
2265,-0.006553813421822116
2266,0.0004886905628434255
2267,-0.0012164026418251131
2268,-0.004910343230037393
2269,-0.0023694500506674723
2270,0.000216636144141703
2271,-0.0068510250671754945
2272,0.001014535807958886
2273,0.00816846391973445
2274,0.0004852566433811243
2275,0.007600488640542605
2276,-0.0022664655442012887
2277,0.004018162610925374
2278,0.005690621610918313
2279,0.003124578271667116
2280,-0.0028408022175781273
2281,-0.0021733434657116345
2282,-0.004068074315045988
2283,-0.004383091792469378
2284,-0.0036467422989010737
2285,-0.009009889535666978
2286,0.004618394932812787
2287,0.0034295666849949377
2288,0.007328812609551041
2289,-0.0002767915311870685
2290,-0.003649774527557298
2291,0.003131822824254357
2292,-0.0018850988013857962
2293,0.006485897962713589
2294,0.0011260536376983994
2295,-0.006627373378245823
2296,0.0008656965045664346
2297,-0.0006722368437380773
2298,0.0003400476763514137
2299,0.004564682970687147
2300,-0.00042846325000640666
2301,0.0017816832382695795
2302,-0.0030053286316128313
2303,-0.004242456570280822
2304,0.005501937528987504
2305,-0.00033810770001286086
2306,-0.009376302034733674
2307,0.00028919338201550265
2308,0.0007505637725458286
2309,-0.002048728566240665
2310,0.0013920749242171179
2311,0.001651645451030066
2312,0.0036131209075140527
2313,-0.001464223361787394
2314,0.0020308495761767343
2315,0.0039705323613505985
2316,0.00048001754718347486
2317,0.0035860546975115216
2318,-0.00283486256833999
2319,-0.0038777694089155513
2320,0.003051736135016677
2321,-0.0028319299201787825
2322,0.003014487914450157
2323,-0.00202350475377108
2324,-0.004379146835690513
2325,-0.0008226310899887186
2326,-0.005049343159546071
2327,-0.0063885964062249286
2328,0.0005351399303314495
2329,0.0033050619210643287
2330,0.0005943679567533885
2331,0.007677138727636454
2332,0.0023984836774636883
2333,-0.000510884870262086
2334,-0.0034474515295912223
2335,0.0027110216191427467
2336,0.0008729479591621132
2337,0.0035417156013345446
2338,0.0026644902828164814
2339,0.0007320323671369212
2340,-0.0035729417405110193
2341,-0.005042796158031733
2342,0.0033729505664831594
2343,-0.0007847745710558192
2344,0.0037215376218757918
2345,-0.0010845125315197017
2346,-0.003504542238727159
2347,-0.000707696902676665
2348,0.0002469245792333947
2349,-0.0005929981019004854
2350,-0.002445260045669451
2351,-0.00023257538991366955
2352,-0.0032431952357427863
2353,-0.004216718729062926
2354,0.001903623555895937
2355,0.0034335252414756413
2356,0.0037998065279470404
2357,0.004177328114364528
2358,-0.0005419051304186902
2359,-0.0004924140195502816
2360,-0.0001121419783061111
2361,-0.002708030715862276
2362,0.002521181468621617
2363,0.003153064029565442
2364,-0.003712295879807318
2365,0.0012658271331464901
2366,0.0006281715861071232
2367,-0.002395438322736302
2368,0.0006142671765647298
2369,-0.0016057440606340127
2370,-0.0016749706602267374
2371,-0.0029987524537542568
2372,0.0022020013181998817
2373,0.001171818046688814
2374,0.0012892062005857938
2375,-0.0013871288084222454
2376,-0.00144153520958289
2377,-0.0020581663435175705
2378,-0.00012128707349356484
2379,-0.0018043641898430225
2380,0.005096730852383115
2381,0.009596043195746265
2382,-0.0008687164653539779
2383,0.006927873715901555
2384,-0.003961370490640163
2385,-0.004466992338802218
2386,-0.004274558948406613
2387,-0.0069101570857124095
2388,0.0033876074354518785
2389,0.0016446485462752285
2390,0.008272786069547771
2391,-0.0016851923831197393
2392,0.0001973243273059094
2393,0.0017335318781123554
2394,-0.008669448717151714
2395,0.003693590090552942
2396,-0.000654689181739534
2397,0.0057728307254462
2398,-0.003746169707134683
2399,-0.0009546278353965137
2400,-0.004267684729229377
2401,-0.0019099532062024152
2402,0.0009530927964945465
2403,-0.0024855233475522213
2404,0.008025828099537415
2405,-0.005278504169455172
2406,-0.002958433632576643
2407,-0.0029451831380288814
2408,0.0013102248728314612
2409,-0.00138111338048105
2410,-0.0011555666394507365
2411,-0.002220180720677702
2412,-0.0017719774489544458
2413,0.00265592107404144
2414,0.0005066900353985927
2415,-0.0018682975689882815
2416,0.004309015930252659
2417,0.00523454234136138
2418,0.002879730236077037
2419,0.0034353327078559467
2420,-0.0027582512624098297
2421,0.002345605297547095
2422,0.00608699428189931
2423,0.0007642462708463364
2424,-0.0041693620513704715
2425,-0.0019315016884897916
2426,0.0027985299848276805
2427,-0.0011423682835459154
2428,0.0010463771088965648
2429,-0.0006258666543624402
2430,-0.00021384133172397228
2431,0.006314514684653873
2432,0.002824645713676038
2433,0.0012982783751155757
2434,-0.0054049428080531325
2435,-0.003478419672428354
2436,-0.006193543837255442
2437,-0.005188628100436632
2438,-0.000855942976786532
2439,-0.003118434862509697
2440,-0.0024638729621216937
2441,-0.0013145288173183447
2442,-0.0003816288312719768
2443,0.002138227737207653
2444,0.0029568944937001396
2445,-0.0010793805193072417
2446,0.002187275743381824
2447,-0.0022813482444275605
2448,-0.0026905339725751248
2449,0.0025579872721865175
2450,0.004270148934178082
2451,0.004224101037686699
2452,-0.0021126679854989415
2453,0.0002584487137646859
2454,0.004320522969072765
2455,-0.002051913282796294
2456,0.00016187624370114784
2457,-0.00034934619861658883
2458,0.00027996172429018903
2459,0.0006056248475465476
2460,0.008999210695781757
2461,0.009115442610901824
2462,-0.0028142988066859683
2463,-0.0037197364297509314
2464,-0.0033984667408235945
2465,-0.0005159884997845872
2466,-0.005768900010558506
2467,-0.003250331612709655
2468,-0.005801985501004297
2469,-0.006026121421820724
2470,-0.002098176444601113
2471,-0.0038913670992700364
2472,0.002665727012029648
2473,0.009018952992651326
2474,0.008325737462091433
2475,-7.785776007710257e-05
2476,-0.0034010521420400923
2477,0.0028424188491146876
2478,-0.001991374655581751
2479,0.003714459026629321
2480,-0.0032976692067933164
2481,-0.003132022669584905
2482,-0.0005704298930655511
2483,0.0006465844669353692
2484,0.007520285073058496
2485,-0.000569538517854894
2486,-0.0009373962243337357
2487,0.0013750091282921572
2488,-0.0005464451917088272
2489,-0.002552275773373501
2490,-2.249428101788742e-05
2491,-0.006320070249965429
2492,-0.003746757532959546
2493,5.190303493219153e-05
2494,0.0017578884679414573
2495,0.0052132715949184975
2496,0.0038651258761811854
2497,-9.653884005099249e-05
2498,0.0021978196617202152
2499,-0.00048600512805909574
2500,-0.0012551610779355689
2501,-0.00267280133969648
2502,0.004065926892793485
2503,-0.001374232950457667
2504,0.0034828760783554924
2505,0.003823853598631918
2506,-0.00034353485128855825
2507,0.0012372359371662983
2508,-0.0025113618563160174
2509,0.0019652217789383536
2510,-0.008038577460907283
2511,-0.0021710432539728246
2512,-0.0025338426255953296
2513,-0.003981185084748568
2514,-0.005831577647861754
2515,-0.001471116611961032
2516,-0.0038822225038624963
2517,-0.0018662566648313516
2518,0.0028027375705181167
2519,0.0027418150712769946
2520,0.005756990637768196
2521,0.004438102671676935
2522,0.006235055776734825
2523,-0.0023235731073482577
2524,-0.0008453961119778818
2525,0.004105321891224569
2526,0.0021999416139565995
2527,-0.00042077687002565166
2528,0.003391991447130204
2529,-0.0027726101068773455
2530,0.0011458046734322044
2531,0.0010116573910682238
2532,-0.0027937768681847216
2533,0.005019854158199471
2534,-0.0025573013609012547
2535,-0.007359008013372816
2536,-0.0013911673343847287
2537,-0.0009093774475352739
2538,-0.0030561571131417532
2539,0.0026110900049606967
2540,0.003145709238679055
2541,-0.0031195287747466036
2542,-0.007371953218107961
2543,-3.744026828491134e-05
2544,0.004515667492191776
2545,0.005441862060676593
2546,-0.004135198834054568
2547,0.003195928564840276
2548,0.003696576003005275
2549,-0.001199704750059918
2550,0.0026776200998553275
2551,0.005540059492172654
2552,0.005614450084791371
2553,-0.006207940949063442
2554,-0.0024059436796056537
2555,-0.0017640345539472434
2556,0.0027076414197293843
2557,0.00014968105085623722
2558,-0.0001362624493866961
2559,-0.0035118132866127777
2560,-0.0015205068459965615
2561,-0.0024447027953454336
2562,-0.008727297502314987
2563,-0.0030575323492093333
2564,-0.00153654656768973
2565,0.0016483517324707292
2566,0.00217307806498686
2567,0.0014273325325472128
2568,-0.0007026783568420073
2569,0.005836737645226784
2570,0.002268880975306137
2571,-0.004316875709898556
2572,0.006155523309763847
2573,0.00235177765700387
2574,0.0020481835684875525
2575,-0.0014493753513369683
2576,-0.0047163259647415
2577,-0.004747574623919035
2578,-0.0002300285789041583
2579,0.003425642916104624
2580,-0.005115322329980344
2581,0.0050797530384154585
2582,0.002176225171016329
2583,0.00021502888365010006
2584,-0.0011114920880970786
2585,0.00021633492689216577
2586,-0.0001906977358998082
2587,0.00012550232172365249
2588,-0.004016906013698224
2589,0.00034785066040511625
2590,0.001742070546792502
2591,-0.0021089294375697017
2592,0.004610377694088948
2593,0.003456704788746107
2594,0.004901037834423846
2595,-0.0036786797920657366
2596,-0.0021562558486821915
2597,0.0004649927509230104
2598,-0.0009653398234858359
2599,6.819657119719498e-05
2600,-0.00024355657966854648
2601,-0.0024333756683952972
2602,0.00032109510354346414
2603,0.0011926328109169437
2604,-0.00407602192902542
2605,-0.005788023698257308
2606,0.006229304365296789
2607,0.011337915863581658
2608,0.0022600624021847926
2609,0.004082677516599327
2610,0.0019954818166857324
2611,-0.01169551041323919
2612,-0.0022436961331350376
2613,-0.0037859664170761228
2614,-0.0020783213354908896
2615,0.0030194339806080316
2616,-0.006581781098388268
2617,-0.002611580207961494
2618,-0.0027437932433653917
2619,-0.004642602051123584
2620,0.002320766871268979
2621,0.008628113130583155
2622,0.003723044851405056
2623,0.004572056288631761
2624,0.0015350078753103309
2625,0.003987025893996421
2626,-2.037671552674626e-05
2627,-0.0038279848504675215
2628,-0.00045657265286314433
2629,-0.002602635065434857
2630,-0.005043795485615805
2631,-0.001233186629162315
2632,0.002595905459922117
2633,-0.0007181853548849457
2634,0.0036441464218808844
2635,-0.0004839631892167937
2636,-0.0009711673398896271
2637,-2.8473407155409428e-05
2638,-0.0030595342106878275
2639,-0.003944738751767445
2640,0.001297343935081548
2641,0.0037456535265727522
2642,0.0005827461308188422
2643,0.002479978925360681
2644,-0.0020847244652747576
2645,0.003867817189899544
2646,0.0012873707010486787
2647,-0.003059099394855722
2648,0.0008556463620497945
2649,0.0007477365462985764
2650,0.0003107574641394856
2651,0.004573558101095895
2652,0.004021782153352104
2653,-0.0038174987151294217
2654,-0.003519946483817756
2655,-0.0003005779947752533
2656,-0.004531463494358027
2657,-0.0029148175332016557
2658,0.000489868324098754
2659,-0.006063170771264749
2660,-0.007727590486498638
2661,0.0032389474017506404
2662,0.0073865565219819514
2663,0.0020755550656448418
2664,0.004690479640881557
2665,0.0033939035892618192
2666,0.0046379870577706326
2667,-0.0012533896997924876
2668,-0.0005798279678601147
2669,0.0012816962692669435
2670,-0.0011169037040524394
2671,-0.004448551850173206
2672,-0.0009637655200925108
2673,0.0002602106691273181
2674,0.0011671893516214697
2675,-0.004268185132278928
2676,-0.002252126764550332
2677,0.0035555025143813018
2678,-0.0017842314024221484
2679,0.002404101215100719
2680,-0.0013235988624434938
2681,-0.0007056010170997488
2682,-0.0007112926967835394
2683,0.00021985810645200506
2684,0.0019193899447136594
2685,0.002721260387774623
2686,0.002603770252952881
2687,-0.0011674691866011139
2688,-0.008514128720444887
2689,0.0001317929351350132
2690,0.003240175427926429
2691,0.004589823642585617
2692,-0.000835869945883248
2693,-0.0006890379870119877
2694,0.002068949174640529
2695,-0.0012482656381587352
2696,-0.007871702574453101
2697,-0.005138078435462566
2698,0.004902531866934392
2699,0.0021725822013954413
2700,0.0033784780832444537
2701,-0.001400001190550915
2702,0.00014329850656636355
2703,0.0017080904459384552
2704,0.0028906260217610464
2705,0.0004209768514897398
2706,-0.0007258618212699266
2707,-0.0023955106168167574
2708,-0.0021421440918730564
2709,-0.0009642406679320065
2710,0.004238671639870968
2711,0.006144569307443409
2712,0.0059179184342996
2713,-0.0031196902866457484
2714,-0.003071979475395804
2715,-0.002317053988158433
2716,-0.0026578897095614652
2717,0.0028755656847899618
2718,-0.004729435301948154
2719,-0.0038749494301692456
2720,0.002096047646921521
2721,-0.002333660930581816
2722,-0.0038808460927995435
2723,-0.0006790307173502354
2724,0.005048589614047155
2725,0.0020846446766165623
2726,-0.002866306787779811
2727,-0.0008510889241849715
2728,-0.0015552298257539114
2729,-0.00190949147448226
2730,-0.00042568114549488764
2731,0.0003994009214899896
2732,-0.00194938572691606
2733,0.0018977159278678116
2734,0.002210748737099139
2735,0.008939356564179313
2736,0.0011300459488123183
2737,0.006234194208663061
2738,0.0024836616335047997
2739,-0.003307381970937785
2740,-0.003583070714551843
2741,-0.00722818747097305
2742,0.0034241121848040184
2743,-0.0016681251598811035
2744,-0.007259880127007649
2745,-0.004612327337834619
2746,0.004934756483265069
2747,0.005426422597459009
2748,0.0028075203625536286
2749,-0.006166732590602115
2750,-0.00020190834797133468
2751,0.005203742848038978
2752,0.0022084375989420268
2753,0.0029782631606921836
2754,-0.0015761365346773082
2755,0.001522184649517878
2756,-0.0010002508933569208
2757,0.002634392093311253
2758,0.001409287011822009
2759,-0.002133036548032939
2760,-0.004221765615932429
2761,-0.0038673938961071366
2762,0.0028720004302029423
2763,0.002157918438588826
2764,-0.001267567398904157
2765,-0.0019111089805844087
2766,0.0015708023467625662
2767,0.002836993359390504
2768,0.00444077275959565
2769,-0.002540666924878491
2770,-0.0016048838606330506
2771,-0.004559436702635676
2772,-0.006409246846510414
2773,-0.0042644117685868505
2774,0.0014536190872309505
2775,-0.0012601803302623848
2776,-0.006073446588303534
2777,-0.003098689178655965
2778,0.0029910036986313514
2779,0.009940612254753917
2780,-0.0004291580504425102
2781,0.005990395628256728
2782,0.0025692633442829377
2783,-0.0015690226595938325
2784,0.001781548917042101
2785,0.0038958340225811712
2786,0.0007333755989339143
2787,-0.0009630497357143841
2788,0.0024662248708203433
2789,0.0009454560220650545
2790,0.0003576582799903324
2791,-0.002934631821868668
2792,-0.0072844226794775285
2793,-0.0016524795526008194
2794,-0.0007319214835717035
2795,-0.001019049568030006
2796,0.002689324348536904
2797,-0.0029782113233583762
2798,0.0019226817553259536
2799,0.0010737752571289005
2800,0.0010578186273249666
2801,-0.0015513546636060013
2802,0.0006132808892282855
2803,0.004182010478440881
2804,-0.0001348265696630626
2805,-0.0004600534110316256
2806,-0.0003513149000387919
2807,0.0017864009179804031
2808,-0.0006327635895370699
2809,-0.004162292315764143
2810,-0.0025313642542089485
2811,-0.0016382904629967856
2812,-0.0029437218276062733
2813,0.00014829165521824603
2814,0.001947055062347559
2815,0.0031162263702075744
2816,0.0016686309225175597
2817,0.0017978694442908512
2818,0.005714767785301163
2819,0.00043159865129858803
2820,-0.00011251674591090596
2821,-0.00019235511510750855
2822,-0.007454150560395315
2823,-0.0021927447592379017
2824,0.006036427752201733
2825,0.0009027987800890851
2826,0.002303834909648227
2827,-1.2886704691374845e-05
2828,-9.671236886632517e-05
2829,0.001736490672141113
2830,-0.0016484986267723857
2831,-0.006624424276969424
2832,-0.006160837494168991
2833,0.0020909072150409706
2834,-0.00097901854357638
2835,0.0036095274898643804
2836,-0.002855338294959429
2837,-0.0005362097438585574
2838,0.0015404893878862066
2839,0.0017896863221345339
2840,0.001161161264973556
2841,0.002496184182625953
2842,0.0007548256389368936
2843,-0.004414119718816644
2844,-0.0012602282899268659
2845,-0.00021306029792108987
2846,0.002429185880319403
2847,0.0015840546079093545
2848,0.0015139133137841848
2849,-0.006772750555376142
2850,0.0036484805716112878
2851,-0.00303050418097414
2852,-0.0026476553892054114
2853,-8.945087482551371e-05
2854,-0.005194130172538888
2855,0.004198824844040713
2856,0.005508777902396128
2857,0.0007225329168045382
2858,0.007623829124131418
2859,0.003127782359232183
2860,-0.002004514153353825
2861,0.004144034841926274
2862,-0.006720329351749831
2863,-0.009060888292985597
2864,0.0018608514263086448
2865,0.005888317986163993
2866,-0.001848713939342687
2867,0.0033715548253441235
2868,0.005446814942759831
2869,0.0009179333440478277
2870,-0.001105296905991128
2871,0.001806244712755238
2872,-0.01108000896190239
2873,-0.002017067340261665
2874,-0.0003437812631675481
2875,-0.0018716734469276545
2876,-0.00154957496176409
2877,-0.001472428189665526
2878,0.0050826911606887005
2879,0.0006739695994418225
2880,0.0007445528206103808
2881,0.0015936922005831957
2882,0.0029363126344027664
2883,-0.003075330689043604
2884,0.0015209188573078562
2885,-0.004909360241555089
2886,0.005184898560123263
2887,-0.0030436894841226773
2888,-0.005185679622842596
2889,-0.0008803994528287923
2890,-0.0004594823410749519
2891,0.00038773469137029504
2892,-0.004776563694113736
2893,-0.0028356863858454307
2894,0.0033042890422416964
2895,0.004981025388777928
2896,-0.0025877274439565032
2897,0.004062989428763026
2898,0.003964471026716038
2899,0.0026721802623892333
2900,-0.004664580438202974
2901,-0.002307821429141002
2902,0.005736513264947632
2903,0.004060647874564935
2904,0.0004304547010993247
2905,-0.00011081411990899667
2906,0.0022954372767309585
2907,0.002060997074696076
2908,0.004587414103567334
2909,0.0044115907534728665
2910,-0.004705482505909853
2911,-0.004024109286637398
2912,-0.006012543498189545
2913,-0.005187072413209166
2914,0.0033651121253913388
2915,-0.0032300013022589355
2916,0.0004896553500475537
2917,0.0005648756687977458
2918,0.0008753810882364465
2919,0.0022028900162575785
2920,-0.006109865275210678
2921,0.0008105690010527522
2922,-0.006177171352518853
2923,-0.006410209925571055
2924,-0.0043365797225787504
2925,0.00049540716825139
2926,-0.004639082751238513
2927,0.00649986423876782
2928,0.009563810556660043
2929,0.0052820691680926365
2930,0.003878280854795975
2931,-0.002890342709764667
2932,0.005553562186693004
2933,-0.002241676842842391
2934,0.0010630900773522418
2935,-0.003678994091602489
2936,-0.0010571720128921026
2937,-0.0013204899746018968
2938,0.004768511959441613
2939,0.001951265262455466
2940,-0.002429881533908577
2941,0.0035625717356038413
2942,0.0008992982899255347
2943,-0.005392720226379728
2944,-0.003869990302241345
2945,0.00273993062077583
2946,0.0029646582635743275
2947,0.00136370943498193
2948,-0.005435719662035557
2949,0.0009629667428231788
2950,0.002588207382981867
2951,0.002340312753299147
2952,0.005768651238918049
2953,-0.008992643965098576
2954,-0.0020340850564595416
2955,0.007498237843593923
2956,-0.0021026769721344644
2957,-0.0014795255814793974
2958,0.0006701362497391304
2959,-0.0035486527623613167
2960,0.0063120891436082086
2961,0.002218257903432463
2962,-0.006087363507462308
2963,0.0007480532918952105
2964,-0.008956960364406656
2965,0.0002861300198073041
2966,0.002368102649437191
2967,-0.0027508397933266133
2968,-0.00340843168270574
2969,-0.001068164946772583
2970,-0.0009503914782484982
2971,0.002254100586116436
2972,0.002683298934204461
2973,0.0011130231448928368
2974,0.0019532885535767444
2975,-0.001822164625008814
2976,-0.0006070910196918806
2977,-0.004861612759559713
2978,0.0032209380009640774
2979,0.005620287988468813
2980,0.003989867842416042
2981,0.002917757929589139
2982,0.0013545078291630928
2983,-0.003324590171172836
2984,4.94071685649038e-05
2985,-0.0012407422495655032
2986,-0.005200693382103642
2987,0.0026701325819611776
2988,-0.002618667071956274
2989,0.0019077146232734671
2990,-0.0008701206330197827
2991,0.0011692271285651066
2992,-0.001974741409519337
2993,0.0006871860418558914
2994,0.004662129008323121
2995,-0.002391452033156315
2996,0.0028528212533398215
2997,0.0008750931716259049
2998,0.003467913062103682
2999,-0.00022598013730137922
3000,0.0007649795337848911
3001,-0.0008238843143502633
3002,-0.003103030909443364
3003,0.003544041914667986
3004,-0.002715584971337992
3005,0.0003900539518711466
3006,0.0001075534271404539
3007,-0.010430108270222331
3008,-0.004473862675358719
3009,-0.0022719951239860998
3010,0.0006819836390608014
3011,-0.0001354046057534565
3012,0.0009393080224934097
3013,0.0011853281350786195
3014,0.0009905289628273604
3015,0.004075081270136087
3016,0.0007149230999388845
3017,0.002669659185358735
3018,-0.003920552419429102
3019,0.004129161685134132
3020,0.0033612312830775502
3021,-0.0008146613122923026
3022,0.004308490785914412
3023,-0.0011565232816002314
3024,-0.0004731103242537442
3025,-0.0010520420195259984
3026,-0.0005454619209195651
3027,-0.0009015940773019326
3028,0.0016504963282176046
3029,-0.0009052762812792048
3030,0.0044796697206106306
3031,-0.0011220447844581902
3032,-0.008493122910988606
3033,-0.002454844695347628
3034,-0.004247148073302292
3035,0.0018907244688234418
3036,-0.0037458041552984947
3037,0.003901816688989249
3038,0.0016652803201382075
3039,0.0017274105390857738
3040,0.004235906443824395
3041,5.0096755312958353e-05
3042,0.000470011057568458
3043,-0.0007587920574041417
3044,0.007550628983696379
3045,-0.008343910525923235
3046,-0.0031981283464060564
3047,0.0011944196569408719
3048,-0.0015819543373582993
3049,0.0034593080951351137
3050,0.005878691268819551
3051,-0.0009994513134075622
3052,-0.0026552477654381594
3053,-0.00693433523812495
3054,-0.0014807304123495907
3055,0.004996547122134725
3056,-0.0035616502115595394
3057,0.0013746541437522682
3058,0.0006305397569458925
3059,0.0015764778215935846
3060,0.0002738805619739021
3061,0.003692849998132767
3062,-0.0001784870238133486
3063,-0.0026008415035113207
3064,0.002160863706820862
3065,0.0035146235249742253
3066,-0.0019987585884199367
3067,0.0014982456465479788
3068,-0.005896931049898048
3069,-0.001736563199382488
3070,0.004644398176433729
3071,-0.005871645457724976
3072,0.0004471096971327207
3073,0.0044450030729101826
3074,3.892047156971515e-05
3075,0.001898863330581136
3076,-0.0023482073239009874
3077,0.0025745775943821344
3078,0.007879811070077208
3079,-0.002974970718051425
3080,-0.006207690795468342
3081,-0.0023683465077554006
3082,-0.0007609417414007839
3083,-0.004176539039846363
3084,-0.004351836961938943
3085,-0.0017156586632936666
3086,0.001588399528123471
3087,0.0018779789361166744
3088,0.0064216466410281755
3089,0.0029467518772991015
3090,0.0008508353711135092
3091,-0.0035390678367504414
3092,-0.0038042787526461914
3093,0.003235068293369438
3094,-0.0012059524056130966
3095,0.0014523225488743312
3096,0.00041592099722739806
3097,-0.004169157054451739
3098,0.012677611737462163
3099,-0.00039259519560869496
3100,-0.0017890026143294975
3101,0.0021043719687993826
3102,-0.002240569220481702
3103,-0.0014511523783621322
3104,-0.0021311095697474037
3105,-0.007214129586366802
3106,-0.0057622868780927644
3107,-0.001359737608114954
3108,0.006724893545127858
3109,0.005818463572722884
3110,-0.002338441722367162
3111,0.006704095719720084
3112,-0.004439339096857567
3113,0.004016483572603079
3114,0.0018936339421503122
3115,0.0015756641494183727
3116,0.004486968908917251
3117,0.004000056956979422
3118,-0.0066979968651473005
3119,-0.006363847890917363
3120,-0.003726141125057701
3121,-0.0015484644159510811
3122,-0.0039047960925642222
3123,0.0010757004121411127
3124,-0.0031662420219386034
3125,-0.00226893860086712
3126,0.00503168119943514
3127,-0.0017631115252244763
3128,0.006236270516280374
3129,-0.0014770801958070064
3130,0.003687579308349987
3131,-0.0011043129982528281
3132,0.0018494478410344241
3133,-0.0029070055059763553
3134,-0.005851548737286129
3135,0.0018460399447772242
3136,0.002448816632125853
3137,-0.005290447337877599
3138,-4.894446600756629e-05
3139,0.003732256094777028
3140,0.00282989381045373
3141,0.007405419466689117
3142,-0.0011602958462898789
3143,-0.0030282216816772227
3144,-0.00018052373361414874
3145,0.003569375928900149
3146,0.004285926500378013
3147,0.003422514434708211
3148,0.0008418304894717522
3149,-0.001888222407039947
3150,-0.005464219373008002
3151,-0.001713537973915314
3152,-0.001021260847461996
3153,-0.0016546120571102581
3154,-0.00099500594034479
3155,0.002988213760111713
3156,0.0032146551904282594
3157,-0.006890057879414238
3158,-0.008140016945012526
3159,-0.00741211851776079
3160,0.001606905479847832
3161,0.004632142317305953
3162,0.0033398048380367364
3163,-0.0014020711901627583
3164,0.003951041622038254
3165,0.004903382223540673
3166,-0.01239966491746754
3167,0.00609898212971446
3168,0.006299013800622015
3169,0.00019504620474966247
3170,0.0011803382106611443
3171,-0.00040198944838385105
3172,0.0008057127845169376
3173,0.001446124582756776
3174,-0.0018595719592097767
3175,-0.00015801863817131116
3176,-0.0004865942606718885
3177,0.0010731749095083233
3178,0.00022597862962955677
3179,-0.007645301185617643
3180,0.003446408277382804
3181,-0.001886972194540538
3182,-0.00016144398487621947
3183,-0.0007927697551335083
3184,0.002592582498883193
3185,-0.0002236184666791468
3186,0.0033880038312313126
3187,-0.0021766021761672055
3188,0.000940064459083588
3189,-0.0002931276089331251
3190,-0.005094041916192316
3191,0.007914492458063041
3192,-0.007778592356357618
3193,-0.004600288150283889
3194,0.0019851707012950477
3195,0.00324415548718192
3196,0.003828319062506906
3197,0.00628286908367245
3198,0.005852948395437404
3199,-0.0027285248314644775
3200,0.0037140313957779556
3201,0.0019771012829710305
3202,-0.007551385809731724
3203,-0.006769272726498259
3204,-0.002425714511500205
3205,-0.0010668381942089567
3206,0.0001686049854858207
3207,0.006187427566311269
3208,-0.005869425912905006
3209,-0.004375382998764617
3210,-0.004834474302639148
3211,-0.004015685706648993
3212,-0.0029650446213010957
3213,-0.0005737987828094235
3214,0.0033557682314001597
3215,0.0011991687969505806
3216,0.006215305400165599
3217,-0.0003725376059210139
3218,0.0024919726269247034
3219,0.0015257821883576904
3220,0.0003967881356244391
3221,0.0002902837619094909
3222,0.008409712910919517
3223,0.005851146531869975
3224,0.001345752078467986
3225,0.0009863363303688009
3226,-0.0024119682862126287
3227,0.005166252048069543
3228,0.002176741754535351
3229,-0.0032532736961836985
3230,-0.007047209986433239
3231,-0.0019960830005294923
3232,0.002860240558270748
3233,0.0048232570778012586
3234,-0.0025124823154817908
3235,-0.001769462500335015
3236,-0.0023915414934186337
3237,-0.002740862630462984
3238,-0.006364320974228534
3239,-0.00041957166499528246
3240,0.0017039816177375888
3241,-0.002069115140461147
3242,0.0010608617030882193
3243,-0.0004876664077518734
3244,0.0028003482765252734
3245,-0.004417723285551571
3246,0.0034548420266703973
3247,-0.005716546718258813
3248,0.0011474344453903003
3249,-0.005109250432656029
3250,-3.430444810142812e-05
3251,0.0009560374638234587
3252,-0.0074825376387165285
3253,0.00033370836192476473
3254,0.0016238438284202272
3255,0.0067681081057840145
3256,-0.0011861183214933865
3257,0.002558688941018702
3258,0.000220020568841732
3259,-0.0018646020048997541
3260,-0.007450889148561953
3261,0.0039827635301935265
3262,0.005855192911770836
3263,0.005667941686716237
3264,0.0024314288000495347
3265,0.003370843223803613
3266,0.004952678040487159
3267,0.005653859037683873
3268,0.004919636392218162
3269,-0.0015506035842613964
3270,0.0018288601107999992
3271,-0.0008240855216310704
3272,0.0017674431689441794
3273,-0.007649530866461893
3274,-0.002996112833567154
3275,-0.0052435495954389864
3276,-0.0072629085204221535
3277,-0.005076855368518537
3278,0.0008975344612125943
3279,-0.0021159597341479687
3280,-0.0020721184304649948
3281,0.0023332481925255923
3282,-0.0033355298048285773
3283,-0.004346531439261354
3284,0.00610393694971603
3285,0.012934941210609889
3286,0.0017199343967541003
3287,0.0012902980842592867
3288,-0.002698420807863133
3289,-0.004375451468376272
3290,-0.008484614201105693
3291,0.0009124851862802336
3292,0.00568490600142229
3293,0.004786639474539217
3294,0.002313377870129393
3295,-0.0031524388489179754
3296,-0.001572058041054157
3297,-0.0018419187207078958
3298,-0.0009342503443257166
3299,-0.003077675291065566
3300,-0.0024396549511317613
3301,-0.0006042293289820096
3302,0.004021984583218854
3303,0.002697369723674497
3304,-0.00038337921159506405
3305,0.001876702492152096
3306,-0.002402955747769187
3307,0.0013643958827058832
3308,-0.00725208475830531
3309,0.001382934153699205
3310,0.0053130803317927005
3311,0.0004731434384320967
3312,0.010631480891981456
3313,0.0036470712660748193
3314,0.004214870831776125
3315,-0.009009706284714675
3316,-0.005780891794566788
3317,0.004703559482269792
3318,0.0005897222218775016
3319,-0.007722721122096645
3320,-0.0003369288363188963
3321,0.0010490495926890279
3322,-0.0034807870352519116
3323,0.0009507900436983002
3324,-0.004455126960749673
3325,-0.0011747962022626308
3326,-0.0016706480054058063
3327,0.0003730769144337197
3328,0.00011691111765343466
3329,0.0033972762181332366
3330,0.0075655584664820604
3331,0.0037299230993050577
3332,-0.005882612813311943
3333,-0.0005523794727006794
3334,5.886313288571733e-05
3335,0.0016025527842077466
3336,0.007258234842594889
3337,-0.0006026146561497261
3338,0.0005167664625755587
3339,-0.005968098885790535
3340,-0.0025613472135530037
3341,0.003734656464578343
3342,-0.004197069973665558
3343,-0.0032264242427903194
3344,0.0006195078513101301
3345,-0.003959017258516022
3346,0.0008748326517325471
3347,0.0009463507706135924
3348,0.0007180112902754679
3349,-0.0011361758088125357
3350,0.0007252517620156759
3351,0.0026861385926653936
3352,-0.003999804618745332
3353,0.00012698948861948958
3354,0.0013653977921895214
3355,0.001026444278004305
3356,-0.002835586025008092
3357,0.001722495527918047
3358,0.009076596904066841
3359,0.0054444498519337714
3360,0.0016741614060357523
3361,-0.00034808140845436243
3362,-0.002170350492820791
3363,-0.00086713322819457
3364,0.0028361486330445275
3365,-0.0059271141673697516
3366,-0.0017808216371570694
3367,0.006124279458130031
3368,-0.004629338069769487
3369,0.001995378478299518
3370,0.0035765738492267276
3371,-0.007752452980319053
3372,-0.0037730240835837795
3373,0.00032793020685439444
3374,-0.0026214194061944737
3375,-0.0024830037848931723
3376,-0.0013711645211277037
3377,-0.0032867296692904923
3378,0.00418410816845833
3379,-0.0010145188548963228
3380,-0.0027254220067408222
3381,0.0031342128335671484
3382,0.0009540354505017685
3383,0.0024151296979960917
3384,-0.006231336498322874
3385,0.00014614831499852078
3386,-0.0015029412089842178
3387,0.001372328035688682
3388,0.007992311427826866
3389,0.001238405207596079
3390,0.00241903560487681
3391,0.001158580873485136
3392,-0.0006578030299152684
3393,0.0010661176289112183
3394,0.00020324498781704864
3395,0.005153322313303863
3396,0.006828367476191811
3397,0.005359691212323978
3398,0.0037871587165322043
3399,-0.0005913778568522538
3400,-0.0053315310327456365
3401,-0.010124777654963482
3402,-0.00623288605125405
3403,-0.01074013233778057
3404,-0.005224677327512193
3405,2.4833069530222004e-05
3406,-0.001804904697159642
3407,-0.005626561226266704
3408,0.003175811325367317
3409,0.008381787250757295
3410,0.004455298094810036
3411,0.0048309398667981404
3412,-0.00449625167797035
3413,0.0006926810990007561
3414,0.0034078579907223603
3415,-0.0017626379914093635
3416,0.00023461350803994155
3417,-0.0045906467294405135
3418,0.0013110152570933696
3419,0.010520239619147092
3420,0.002889065615740226
3421,0.0001553712888840396
3422,0.0011939737302735752
3423,-0.0005731738205143992
3424,1.2894491707771127e-05
3425,-0.0009861584633584324
3426,-0.0007368925908345196
3427,-0.0011488365156895356
3428,0.0010657803581585693
3429,-0.007918476382698323
3430,-0.002346545603439566
3431,0.003840466137187479
3432,-0.002076994399077381
3433,-0.002136595204534651
3434,-0.010138769401342947
3435,0.0051188851640410395
3436,0.007529265762317682
3437,0.011187279514199662
3438,0.0007519282313836664
3439,-0.005739057893861881
3440,0.00037820178877629937
3441,-0.004273657554215131
3442,0.0023869397461611748
3443,0.003462675834529335
3444,-0.0020584504766307677
3445,-0.006747924473829377
3446,-0.003227773046952918
3447,-0.0058813004953193245
3448,-0.0006686055395987486
3449,-0.0020409387901487736
3450,0.0008725662020493321
3451,0.002661195872426971
3452,0.0014533284354868118
3453,0.00028103474097772654
3454,0.001788834026056809
3455,0.0037589968121356145
3456,0.0015119315734820893
3457,0.004894746802064529
3458,0.0053353644654467935
3459,-0.004646102228519588
3460,-0.004458668675639526
3461,0.0010836690342356653
3462,0.002388661453978558
3463,0.003343113331875331
3464,-0.0017499834235491871
3465,0.0017819396777322034
3466,0.005251565615287228
3467,0.00447699468722276
3468,-0.0018473225026614647
3469,-0.0017298563605557633
3470,-0.005027986861255294
3471,-0.004455255551815328
3472,-0.0012038014353609738
3473,0.0013476338920112366
3474,-0.0018060680559105965
3475,-0.0028771443407585753
3476,-0.0015793361604772606
3477,-0.00223423296723947
3478,-0.0033067313611502246
3479,-0.007930514575348168
3480,-0.002774822945136932
3481,0.002273768228519553
3482,0.0023613534915951796
3483,-0.00196126348609736
3484,0.002861573375342886
3485,0.005560936958988419
3486,0.0024420355288108705
3487,0.00397858261504193
3488,0.0019332045951815386
3489,-0.0018214222398926418
3490,0.001758805592245033
3491,0.004650334824015218
3492,0.000964985103817843
3493,0.0024532266257814676
3494,0.00033119379146354794
3495,0.005207709521620461
3496,-0.0004998496239702523
3497,-0.003603835440508041
3498,-0.004939395781835871
3499,-0.004933317747368807
3500,0.002896738136432816
3501,-0.0030402643958693364
3502,0.0017279492002694758
3503,0.002746225630000481
3504,-0.0017603317947070558
3505,-0.003746680908414975
3506,0.003856251165879181
3507,-0.0021579780109341716
3508,-0.0030998105928287355
3509,0.00604177099681298
3510,-0.004276101674236544
3511,-0.004255271513913598
3512,0.0009727585561552787
3513,0.004637331993355152
3514,0.007265425469095292
3515,-0.0014309885563739818
3516,0.00021302745291043503
3517,0.0004272617148901965
3518,-0.003560077752696302
3519,-0.005287815706434284
3520,-0.0022494108675072217
3521,-0.0025872012965072804
3522,-0.003436160146899977
3523,0.001755612601041412
3524,0.003155942716337374
3525,-0.0032738112755405085
3526,-0.00046724966896271626
3527,-0.0001908094438764444
3528,-0.00428568953065038
3529,0.00203742166603978
3530,-0.0007733132071893623
3531,0.0030496895165465273
3532,0.00126017950453273
3533,0.012013740706422065
3534,0.005888330952763823
3535,-0.004057271297232017
3536,0.001193984164780339
3537,0.0022239476763704453
3538,0.0005332999472859711
3539,-0.002050252778458963
3540,0.01124578982893277
3541,-0.0004531305749763716
3542,-0.014946667479400369
3543,-0.0027610748356344805
3544,-0.0004308053795221093
3545,-0.00404713096764046
3546,0.002362547983259468
3547,0.004706207889296495
3548,0.00048199473848825267
3549,-0.0030821080945884214
3550,0.0020026056539233098
3551,-0.002051781287081507
3552,-0.0021766203210052846
3553,-0.0031525944343705585
3554,-0.0014908591153503792
3555,-0.0007149857791947899
3556,-0.005353119104462902
3557,0.0034059401353295476
3558,0.00032265805356471167
3559,0.00475357220294326
3560,0.0029663831778834054
3561,-0.002246327602161688
3562,0.001962412603471117
3563,-0.0007422249111849813
3564,0.005567088098249123
3565,0.004223830609074744
3566,-0.005266210132430579
3567,-0.00027408859073189615
3568,-0.0005473284406771577
3569,-0.0004270871724806301
3570,0.00400274698859402
3571,-0.0008646222688192696
3572,-0.005684029058806409
3573,-0.0004198356565786824
3574,-0.0004445949862139781
3575,-0.0003535968222160152
3576,1.6228501920038593e-05
3577,-0.0046991101024008546
3578,0.0007006027061600088
3579,0.007410378897322006
3580,0.002462321032295941
3581,-0.0038290059921967387
3582,-0.000983066279509762
3583,0.0004815174171880071
3584,-0.00040038710014075884
3585,-0.0019654837510196393
3586,-0.0020256857889766004
3587,-0.002548832969173123
3588,-0.0021422747772968653
3589,0.006770973524893086
3590,0.0066563277961021365
3591,0.0005908783670036787
3592,-0.0011499799336118638
3593,-1.4574903930373098e-05
3594,-0.00024062805501576592
3595,0.003964362858808708
3596,0.0021088902433810935
3597,-0.006335537299032829
3598,-0.0010317118670157034
3599,-0.001247467829973082
3600,0.008481357367669735
3601,0.0006235791018180045
3602,-0.008802787169784467
3603,-0.006539469306629674
3604,-0.0017915357232566268
3605,0.004424494233071859
3606,0.001334138340405461
3607,-0.0022490314175561636
3608,-0.0014712985965067444
3609,0.00411901157265047
3610,0.001517779139996095
3611,-0.002534462858668351
3612,-0.0013872576579077815
3613,-0.0005604304229076783
3614,-0.00030830638315520846
3615,0.002830052586191451
3616,0.0023105173402046784
3617,0.0038284962386327
3618,-0.0014845017579568909
3619,-0.0006745852643611373
3620,0.003758985659471148
3621,0.003460195568563644
3622,0.00510855318609214
3623,-0.002359127656844026
3624,-0.012918776468077637
3625,-0.010382413759169339
3626,0.0014051895581028168
3627,-0.0017030701665143467
3628,0.003478709482417211
3629,0.007292502323298461
3630,-0.0011394469546884096
3631,-0.0004153616363017469
3632,-0.0005874285028928134
3633,-0.0016987709113854034
3634,-3.263035340168689e-05
3635,0.0047762513412406855
3636,-0.0023240411337794326
3637,0.0006169082594542716
3638,0.0016775124745767207
3639,0.0027220506109020895
3640,0.005372219886346543
3641,0.0027430360417905727
3642,-0.002930346003096408
3643,-0.0064404759023568145
3644,-0.005870502845759525
3645,0.0038267696453213604
3646,0.002199540668383654
3647,0.0008701441576500889
3648,0.0014001641356752234
3649,-0.005368173307859606
3650,0.00566124484895903
3651,-0.007868671337927406
3652,-0.006248913571355784
3653,0.004269273793953301
3654,0.0019337892235426687
3655,-0.0019778490982524637
3656,-0.0007077951896657334
3657,0.01117027671764895
3658,0.0017185651704145887
3659,-0.0003404871557277584
3660,0.002963625138977139
3661,0.000403901419631366
3662,0.0005748161267335921
3663,-0.0018073241213788383
3664,-0.005182249635273204
3665,-0.00903803137120341
3666,0.0002053914193973997
3667,-0.0022021485732713186
3668,0.00262794403581901
3669,-0.0029532734874894266
3670,-0.0009291132149975047
3671,0.0043443575221233195
3672,-0.00505072581972398
3673,-0.0011540591952921685
3674,0.005408044010266508
3675,0.002768370852309819
3676,-0.0017738221217973183
3677,0.002518690956689747
3678,-0.0026654725161429985
3679,-0.004356856108315092
3680,0.0024415936392692943
3681,0.0064271035939531766
3682,0.003930585122281177
3683,0.0059091515322924415
3684,-0.0007567953734035592
3685,0.002430616694861723
3686,-0.000764393013143282
3687,-0.006576261836841529
3688,0.0020338984824582462
3689,0.001000877399833261
3690,-0.001922734306503823
3691,0.004482484436681813
3692,-0.0017398723241393056
3693,-0.0015643091111344582
3694,0.0010085218951619204
3695,-0.009060333917431378
3696,-0.003973253519815841
3697,0.0025536439165590704
3698,0.0027003064017396047
3699,-0.0015780950623845158
3700,0.0011978598087808209
3701,0.0011542425425815845
3702,-0.0021460634094418903
3703,-0.0019796358209958906
3704,0.003470665643375409
3705,-0.0012241060317237885
3706,-0.0011457897387762593
3707,-0.002541081446353472
3708,0.005796641234382694
3709,0.003589442619121151
3710,-0.00577178019599584
3711,-0.0022198489735685886
3712,-0.003412904069739868
3713,5.462078094034192e-05
3714,-0.001678170844528916
3715,0.0035990808577181545
3716,-0.00506088007429384
3717,-0.0014412331187030527
3718,0.0014757093888362084
3719,0.007422777396248856
3720,0.006268428839885696
3721,0.0010793186598056278
3722,0.0011087739663637533
3723,-0.00432661359178675
3724,-0.0011517634464055567
3725,-0.0016044048386110472
3726,0.004642351234698473
3727,0.0062339075480832675
3728,-0.0006719902907035766
3729,-0.0021605225548559613
3730,-0.0006183878262432628
3731,0.0028667971856206455
3732,0.0012738480961151247
3733,0.0020977901182102883
3734,-0.00496031345475101
3735,-0.007470987147166947
3736,0.0001546286244466146
3737,-0.00886278504045745
3738,-0.00360598359422298
3739,0.003584883081098727
3740,0.008113127781464679
3741,0.0016510970994068237
3742,-0.0032069493149949977
3743,0.001042986520272366
3744,0.0007975197515328811
3745,-0.001797377124221308
3746,0.00495613327409511
3747,0.003496581121783798
3748,-0.003290928119229735
3749,0.0013511029159838208
3750,-0.002333629326135042
3751,1.9313666905578473e-05
3752,-0.001473917910876997
3753,-0.0029104734191117507
3754,-0.0027661678825462513
3755,0.0007994359930734224
3756,-0.0007034336432023055
3757,-0.004200595314143649
3758,0.003195887563884673
3759,0.0007080264433044353
3760,0.002233046052677686
3761,-0.0013546204916283205
3762,0.0015988735410791266
3763,0.0002949875149316668
3764,0.0009718695361054398
3765,0.001234843586738853
3766,-0.0018054789466611099
3767,0.004032063726721262
3768,-0.0008539705641422961
3769,0.0024954714041419985
3770,0.0019215014511196667
3771,0.003279668550122519
3772,-0.0017778282560287247
3773,-0.001352855493709274
3774,0.001321720215653242
3775,0.002911912941031548
3776,0.0021272869973052036
3777,-0.0048730522620326145
3778,-0.004259752399207715
3779,-0.005327939074198554
3780,0.006831163813042709
3781,0.0013046779679858353
3782,-0.005121460181253387
3783,-0.0017962579688572573
3784,-0.0010332334981251268
3785,-0.0030392013669325642
3786,-0.0053985968999048445
3787,-0.00030014362571592623
3788,-0.0020007991814749142
3789,0.007938323757797669
3790,0.0040601347177383245
3791,-0.0009092325272878725
3792,0.002320635979819195
3793,-0.0005605617438962131
3794,-0.007690530065195213
3795,0.0026495076756037498
3796,0.0022346199769195108
3797,0.0032518870166667446
3798,0.008886500114578977
3799,-0.008843113073410958
3800,0.0002061261292412419
3801,0.0005708286851486451
3802,1.32745569817877e-05
3803,0.0006119911762427297
3804,-0.004573348649834084
3805,0.0009372560155020936
3806,0.0029236257495264192
3807,0.0005740413134361338
3808,-0.0006455376726302725
3809,0.0004703532691692162
3810,-3.912021915553933e-05
3811,-0.001899288639764454
3812,0.004836631802435729
3813,0.001378167200870405
3814,-0.005079192037830305
3815,0.0010417992858792538
3816,0.004262880418057635
3817,-0.004298220578377114
3818,-0.00507513236266182
3819,-0.0010257474680582922
3820,0.00013758613119605606
3821,0.005111155953706847
3822,0.00660629274339413
3823,-5.733908231235832e-06
3824,-0.00257268648818467
3825,0.0023349210346779777
3826,-0.002491608030835483
3827,0.0007619400692667616
3828,5.4963272940442703e-05
3829,-0.002626222249909528
3830,0.0013188355924558491
3831,0.00040990637349019345
3832,-0.007479521331318056
3833,9.111639653158407e-05
3834,-0.0036633309355284128
3835,-0.00012995280395629132
3836,-0.0009336249222036564
3837,0.0019247212541623647
3838,0.0029099248834467753
3839,-0.002176064877352715
3840,0.00030809103137421044
3841,-0.0036699421242165093
3842,-0.0004963538620472024
3843,0.0008705093097237798
3844,0.005979735479274032
3845,-0.004097024742101324
3846,0.004127642372646109
3847,0.00982715781395479
3848,0.01261090794384153
3849,-0.001761479214882334
3850,-0.0077214826565307195
3851,-0.0017833085660088552
3852,-0.0009470137504782
3853,-0.004111196140456979
3854,-0.004270932084711587
3855,-0.002014551908865292
3856,-0.007472692341623883
3857,0.0021094712979920034
3858,-0.001154816173382216
3859,-0.0007358105472886987
3860,-0.001977712209755754
3861,-0.006016490121585985
3862,0.0010069949217211653
3863,0.003933529358242456
3864,0.004352042334150782
3865,0.0059012896932126215
3866,0.0007071217855648872
3867,-0.0005301411288172117
3868,0.0014899614998041249
3869,-0.001215544643115343
3870,0.004000883880749706
3871,0.0052238705191985
3872,0.0039840089314742136
3873,0.0027381553327885787
3874,-0.0036558658663993875
3875,0.0012677816040995177
3876,-0.0046854387751309855
3877,0.00027633571034294674
3878,0.0021943571051154086
3879,0.0035013853015591683
3880,-0.0019978672510976604
3881,-0.0068625032257473954
3882,-0.0009293408175196829
3883,0.0001633393819095337
3884,-0.002812531231358297
3885,0.001206340220980008
3886,0.005551993986358124
3887,-0.0037769477259453578
3888,-0.002293719934629493
3889,0.0012909029277808548
3890,0.002867393577396688
3891,-0.008135544700842396
3892,-0.0034788618390579236
3893,0.00023538041536896002
3894,0.0026294811621914776
3895,0.001711168934780044
3896,-0.006125765518958773
3897,-0.008299271992662515
3898,0.00272831350985505
3899,0.003803221312521408
3900,0.001647278356342069
3901,-0.004028208413951021
3902,0.0036579911052754812
3903,0.004237755901307367
3904,-0.0008882295872207433
3905,0.003574174457114018
3906,-0.0007928169991502851
3907,0.0028835471640569193
3908,-0.0006929226567281531
3909,0.002196441516659991
3910,-0.002796664074041468
3911,0.003928136911661529
3912,0.0009444535546661702
3913,-0.0028325153005130162
3914,-0.005876625571683768
3915,-0.0006464954328852905
3916,0.0031420173964352063
3917,0.00010882798563619997
3918,0.0026312582153645223
3919,0.004808253322675955
3920,0.0016212513384408975
3921,-0.0072511751231291045
3922,-0.0006201205971765981
3923,0.0016597493469379578
3924,-0.0019399639075524406
3925,0.003537704526666137
3926,0.006480268510894043
3927,0.0008659896905245969
3928,0.0048165229591158295
3929,-0.0009899903974968857
3930,-0.0015647556355283245
3931,-0.001740475387257522
3932,-0.00025072815136267454
3933,-0.002134480699638082
3934,-0.0021201528112041804
3935,0.004594017470930191
3936,-0.0034638247428607654
3937,-0.006442027689396211
3938,-0.00530342327722972
3939,-0.005992521943945943
3940,-0.005018854904227683
3941,9.342018082547296e-05
3942,-0.0017256291382718829
3943,-0.0011589544354235655
3944,0.0028972519777623346
3945,0.0030047197661305456
3946,0.004709200890691955
3947,0.002330373483882875
3948,0.00048086290373925734
3949,-0.0002430520840554888
3950,0.0030809365331724474
3951,0.007391126622530193
3952,-0.0011782428589416083
3953,-0.0011732323076622132
3954,0.0017984943462200668
3955,-0.0031028175538918255
3956,0.005254365367600664
3957,0.007204902713322657
3958,-0.00380200144499175
3959,0.004400391042415765
3960,-0.00335937703124163
3961,-0.004734128520605637
3962,-0.004391860627095176
3963,-0.008386851423366029
3964,-0.005766702710335508
3965,-0.006121278689679096
3966,0.006213618309892457
3967,-0.004307061192015512
3968,-0.0041641246643499
3969,0.005062946436106627
3970,0.004851282764157567
3971,0.004142612632034403
3972,0.006327149632778712
3973,0.0029208269253674177
3974,-0.0006927296994650028
3975,-0.0022054466900542392
3976,-0.0013685807559012213
3977,0.002601601675252649
3978,0.007192633164609262
3979,0.0038737196839745223
3980,0.005172631740369269
3981,0.0012588285391033245
3982,-0.0015916655662484352
3983,0.0019636790963633377
3984,-0.009621808916007456
3985,-0.0022056446053510875
3986,0.0014648504992858039
3987,0.002002633954538647
3988,0.0037327061108192996
3989,-0.005852039154950569
3990,-0.0068191872701928325
3991,-0.005953912419027574
3992,-0.003973790456667099
3993,0.0017523501718854058
3994,0.002171198613441043
3995,-0.003982673555798623
3996,-0.003726854140731064
3997,-0.0032150182989214033
3998,0.005449117517353919
3999,0.006372882045542527
4000,-0.00494533809717156
4001,0.0017751393602544706
4002,-0.004327432257982249
4003,0.006206716405837121
4004,-0.003334970727489983
4005,-0.0015046492915042429
4006,0.00738599581593649
4007,-0.0033676590510278073
4008,0.0028467461820441842
4009,0.0009215523032355816
4010,0.00016639273261360478
4011,0.0007537375186824746
4012,0.0034182932479281686
4013,0.002494852757204932
4014,0.0020168594755425474
4015,0.0005149029218760584
4016,0.0009441443760982073
4017,0.0014749692911655227
4018,0.002189299508937396
4019,-0.005399136185876653
4020,-0.0018349427668830891
4021,-0.005448734193376288
4022,0.0009993497419725633
4023,0.0020253868561485476
4024,0.0015964216770846572
4025,-0.008081706890911061
4026,-0.004581689734129965
4027,0.0069148003629339585
4028,0.00558662376469898
4029,0.001333663059155962
4030,-0.010581828180417769
4031,0.0039539380984408975
4032,-0.0012419942804682785
4033,-0.006821837938306586
4034,-0.0024211757004939816
4035,0.005123047612700979
4036,0.0014329140081859055
4037,0.014276105200380019
4038,0.0022218456985803508
4039,-0.008684947242835504
4040,-0.0032393124869035854
4041,-0.004709355620523835
4042,0.005933548964512013
4043,-0.002558053410304852
4044,-0.00836529319324834
4045,0.0021203703601437047
4046,0.0018047018149291178
4047,0.0014271933842152796
4048,0.0021943113931186947
4049,0.0007949399973458393
4050,0.004409311649833556
4051,-0.0021304051596109826
4052,0.004933994858423023
4053,0.007653759780952094
4054,0.0012512478558582242
4055,-0.0025397744268655558
4056,-0.004972221594185249
4057,-0.004634380239987736
4058,0.0018801861518192966
4059,-0.003078272169920804
4060,-0.004106445558442316
4061,-0.0013988390235227218
4062,0.000391197907848714
4063,-0.004838403995408646
4064,0.005051615562102597
4065,0.005328580840016536
4066,-0.005354280028123522
4067,-0.00105960590301739
4068,-0.00021799733107643292
4069,-0.001692319439552864
4070,0.00024204972898923122
4071,0.002993397942184988
4072,-0.004192039194624244
4073,0.0008615678477324369
4074,0.0013453908212034526
4075,0.0040840951315292
4076,-0.0007432019123462634
4077,0.007305209362394461
4078,0.00918208979205229
4079,-5.5277003817003414e-05
4080,-0.003106900938461339
4081,0.0032795266846924204
4082,-6.199810917052219e-05
4083,-0.007386457366024113
4084,-0.00033202535230338927
4085,-0.004833022737433687
4086,0.001737097283828007
4087,-0.0030352563681364016
4088,0.0022875958162916514
4089,0.002635534080642341
4090,-0.0072635896488166775
4091,-0.003394374855852011
4092,-0.001359526473666317
4093,-0.0013360928444260244
4094,-0.00043062462998717625
4095,0.0022666710826945123
4096,-0.0021880210170501305
4097,0.001690221459871433
4098,-0.00023476262189662048
4099,0.0011792404493072735
4100,0.0031829139511747057
4101,0.0005536939377032528
4102,0.004405954284554109
4103,-4.3893324835269504e-05
4104,-0.0001986766363432195
4105,-0.00015897994578975908
4106,-0.00017945934867288384
4107,-0.0024065833134709162
4108,0.002220211736569256
4109,0.00344326942721009
4110,-0.0019131830903225096
4111,0.0013697847945992664
4112,-0.0036132923872371613
4113,-0.001978890017176671
4114,-0.0035403570454181233
4115,-0.005301946771920309
4116,0.0043049805487714934
4117,-0.0039862996975634345
4118,0.003145709402106218
4119,0.006465601849926802
4120,0.003642852525716657
4121,0.0036516494807421664
4122,-0.0035802870997712136
4123,0.0020291327267340613
4124,0.00010154834148283498
4125,-0.0037908045986400664
4126,-0.00011376111703895013
4127,0.0029304720882211924
4128,-0.0006806159559220974
4129,0.005547980009550321
4130,-0.005701082118036101
4131,-0.005121852152960464
4132,0.0001824265143701275
4133,0.0035660314422464876
4134,-0.0018454400435260875
4135,-0.006255207420452101
4136,0.0027160500083648655
4137,-0.0057302169314421445
4138,0.0025732176086490314
4139,0.0022420321518542424
4140,-0.00043075614353974175
4141,0.005899298271107985
4142,0.004552677132296927
4143,-0.004915744996306115
4144,0.0022110964658441246
4145,-0.0003835589647701084
4146,0.00256017088140311
4147,0.0017182378782991089
4148,-0.0004019781880502029
4149,0.00023732331099572158
4150,-0.004265111264703066
4151,-0.006916656663738756
4152,-0.007210954877331834
4153,0.002545766574010325
4154,0.0011538522439853705
4155,-0.00013490071341169634
4156,0.002964568793709799
4157,0.005290979190451081
4158,-0.0015207817800261978
4159,-0.0015997611560899117
4160,-0.005246614500623014
4161,0.0002879519572182524
4162,0.0028884598913465967
4163,0.003083484285843978
4164,-0.0004245098696633188
4165,0.0018487645471275058
4166,0.00040523112046582377
4167,0.003043186913544201
4168,0.005090386342513125
4169,0.0002766680770138596
4170,0.001997079196400904
4171,-0.003572249931754759
4172,-0.006371342416521492
4173,-0.0022059513002594504
4174,0.006279100042473048
4175,0.0002035073420407138
4176,-8.894201999311204e-05
4177,-0.0008034954390917105
4178,-0.0010239117536741931
4179,-0.001210306544567539
4180,-0.005791350622299636
4181,-0.0030531521439669477
4182,-0.0001434646623590767
4183,0.00312151285700335
4184,-0.0020502589958099147
4185,-0.007529205033331822
4186,0.004980927179485488
4187,-0.0003823511920877168
4188,0.000740454044369598
4189,0.003591189680622508
4190,0.0006319391042491299
4191,0.005079368368146496
4192,-0.0019302797740172305
4193,-0.001488159703870751
4194,-0.0001959477015549601
4195,0.00673035768536369
4196,0.00458905875187562
4197,-0.00429166304877522
4198,-8.916717227164077e-05
4199,0.0001461801691435491
4200,0.0018045319702023584
4201,0.0020001618819348475
4202,-0.00019123749787316752
4203,-0.001997049552674258
4204,-0.0033401914624229916
4205,-0.00123067731471997
4206,-0.004362463685899325
4207,0.0017172963730893052
4208,0.0001982590261390138
4209,-0.0018500976526331179
4210,-0.0018048443840747198
4211,-0.003075379304931009
4212,0.00010254672143133504
4213,0.005773674933921829
4214,0.007236188594615864
4215,-0.004901052688196572
4216,-0.005571964506763239
4217,0.0026601099693505286
4218,5.599513516878554e-05
4219,0.005577490230129966
4220,0.0069036690512935565
4221,-0.00803195214939394
4222,-0.0014255688314536961
4223,-0.003930753580987097
4224,-0.0008258796899009001
4225,-0.0011097840580831866
4226,-0.0026774611771503525
4227,0.005276777202994313
4228,0.005366200747908361
4229,0.0025405684360419447
4230,-0.005137624285748016
4231,-0.0030667862004256207
4232,-8.697235638665916e-05
4233,0.0013234788795303785
4234,-5.899858091788779e-05
4235,-0.0011592145708201832
4236,0.0001417980401196943
4237,0.00016951179190680642
4238,-0.004209289857732173
4239,0.0034488876461445488
4240,0.003221803088522898
4241,0.004024359082617551
4242,0.003866688914251762
4243,-0.0011793785459925463
4244,0.001394052127281195
4245,-0.001420822730559294
4246,-0.006791402317967666
4247,-0.007484235430416189
4248,0.004340457172028712
4249,0.001534007729713325
4250,-0.004761511460816749
4251,0.0018165384504063783
4252,0.0028448231041648033
4253,0.0035236764479556083
4254,0.005806970152122876
4255,0.005483532264624508
4256,0.0012402443090070029
4257,-0.005845996938029147
4258,-0.005275470786094288
4259,-0.0011543691047605931
4260,0.0010775807004199467
4261,-0.003546805250022482
4262,-0.007043026876481966
4263,-0.0012382147672908867
4264,0.001458642610773179
4265,0.006465299437660965
4266,-0.0017955003895867988
4267,-0.0019084922781364639
4268,-0.0024750398807909645
4269,-0.003225590309021251
4270,0.002533308112025689
4271,-0.0012082363932101828
4272,0.00031884150976345393
4273,-0.0019426611549764675
4274,0.004039809652555716
4275,0.009079650258262437
4276,0.004481627015770214
4277,0.0014346845802278045
4278,-0.0003780489073452152
4279,-0.004681456310019163
4280,-0.0001315921572415408
4281,-0.0002228861011337336
4282,0.001946745806137135
4283,-0.00047868735784297595
4284,-0.004182613777536605
4285,-0.00016114417441378398
4286,-0.0020073353372835473
4287,-0.0021879300264474807
4288,0.0018042809189093793
4289,-0.0006731094283326106
4290,0.0010802088226543067
4291,0.0024911549612565993
4292,0.0002902453572240643
4293,0.001409838848596504
4294,0.001971240748645845
4295,0.0026694664109890775
4296,-0.002337116133024008
4297,0.002889283853922559
4298,-0.0020648193890006744
4299,-0.0065457583136197695
4300,0.003360805343990533
4301,0.0029499603081809597
4302,-0.010750037099379132
4303,-0.005443027636423471
4304,0.002821012863636646
4305,-0.0001439639038132868
4306,0.002195305238347928
4307,0.0025143687655104817
4308,0.0014553475962071748
4309,0.0033724752194004117
4310,0.002946104670467203
4311,-0.0036992065835949597
4312,-0.003132711900032205
4313,-0.0060413415413054245
4314,-0.0006458275698907907
4315,0.0029597153945785225
4316,0.00037430126610065416
4317,0.004707952753279219
4318,0.0050988661947181995
4319,0.006572494438724697
4320,0.0059976209476085025
4321,-0.007510301921620301
4322,-0.00524785092267486
4323,-0.0013391235419370432
4324,-0.0012632624941640467
4325,-0.0004704996484324077
4326,-0.005923282844127298
4327,0.0005034280626623807
4328,0.003949506279380112
4329,0.004843211725888555
4330,-0.007903181887764232
4331,-0.006495943857545492
4332,0.001983634898016203
4333,0.006633574927048737
4334,0.003588952183102077
4335,-0.00175802431199367
4336,0.0019510701162378753
4337,-0.0010921625663573428
4338,-0.0013882252299144502
4339,0.0017905990027610444
4340,-0.0006894195788762995
4341,-0.003837969518382659
4342,-0.002016222033261454
4343,0.0009873048636179372
4344,-0.00013896144885231637
4345,-0.0012777886103925787
4346,-0.0010845242077719888
4347,-0.00851168417153623
4348,0.0061975321349330426
4349,0.011565526488841533
4350,0.0030619155375200217
4351,0.005899495159008765
4352,0.0008792944624194266
4353,-0.00027311736187968574
4354,-0.004743544020708668
4355,-0.0008728163526746414
4356,0.002174129838075885
4357,-0.008255690576005652
4358,0.0011205674293222785
4359,0.0029042109398332693
4360,-0.00029562409652964146
4361,0.0010534572778457662
4362,-0.0010944832670865268
4363,-0.0023055755700476747
4364,-0.0034487895099489683
4365,0.0010766552834205242
4366,0.0024400601153554595
4367,-0.00010537704369111174
4368,-0.004086062798404689
4369,-0.002520830356997546
4370,-0.00625108394830967
4371,0.0038009065696475606
4372,0.006967343883155878
4373,-0.003472396671003723
4374,0.0015004713693919456
4375,0.0027014476520376444
4376,0.007123517328818161
4377,0.004585356774936843
4378,-0.003044190395749043
4379,-0.008379074495219815
4380,-0.008978846732934535
4381,-0.0036604764910211553
4382,-0.005664471541074174
4383,0.00404435007412735
4384,0.007972233985145204
4385,0.00417913594515859
4386,0.0020617583541981573
4387,-0.0051727889385171115
4388,0.003941368756547241
4389,2.246354699823698e-05
4390,-0.000498387291324065
4391,-0.0015858479702401812
4392,-0.002418020600462756
4393,0.0027327176890300005
4394,0.003513532636436642
4395,0.00408877362735616
4396,0.0010052282983073037
4397,-0.000390073942517416
4398,-0.0025787254742218784
4399,-0.002277801656561853
4400,-0.0015725916815785938
4401,0.006111561716166606
4402,-0.005843319347756962
4403,-0.001751821502610518
4404,0.0024759534668391224
4405,0.0009316722123671392
4406,-0.0006803046581083418
4407,-0.00014336005684873442
4408,0.00027938753469338405
4409,-0.000818869341933706
4410,-0.0013647096492157944
4411,-0.0032002509624561894
4412,0.007305555557866117
4413,-0.002200093782448292
4414,0.0013178315768576712
4415,-0.0033461553870460306
4416,0.007120301202690063
4417,-0.001489487688932591
4418,-0.004984389344435956
4419,0.0004678703963786404
4420,-0.0035676540187083213
4421,0.0038110182829880976
4422,-0.00484215465568297
4423,-0.0037211078464209277
4424,-0.0018660409900509885
4425,0.006865765887123199
4426,0.0016029827156405722
4427,0.003999831051849015
4428,-0.0013989251139304784
4429,0.0020296908664671053
4430,-0.004695282049204984
4431,0.005307163333645772
4432,0.00550188172095792
4433,-0.006066568383760035
4434,0.0034918935071690804
4435,-0.0018973735639839766
4436,-0.0004315285201776254
4437,-0.0018209849743080347
4438,0.0022190816298247595
4439,-0.0018097839594371874
4440,-0.005760514105111922
4441,0.003371262565366984
4442,0.00446265457972829
4443,-0.004330970206642417
4444,0.004551956444190504
4445,-0.0031010916321139483
4446,-0.00295154948295211
4447,-0.0015522449440950664
4448,-0.0016751550448922525
4449,-0.0004017491670937415
4450,0.003617528949332747
4451,3.6516639998086103e-05
4452,0.0009504914782189847
4453,0.0004560463530109589
4454,-0.0029083319955307257
4455,0.0009909491263602587
4456,-0.00438281201397967
4457,0.001472861211030069
4458,0.0023013998440734934
4459,-0.003152722342417381
4460,-0.007834478650651799
4461,0.009441894369584265
4462,0.003609279448670278
4463,0.006607813751268959
4464,-0.002634414274336692
4465,-0.004665241884730316
4466,0.006668322019978769
4467,0.0010319334770637094
4468,0.0008009374040962754
4469,-0.005329123372062855
4470,0.00043433011079807744
4471,-0.0053190695232404024
4472,-0.0018643872737974538
4473,-0.004090905224048411
4474,0.00197918940119665
4475,0.00393162781624542
4476,0.0008410379201585529
4477,0.002858331156566477
4478,0.0022528869581218613
4479,-0.0026393478010131675
4480,-0.0017123440717807005
