timestamp,Signal
0,-0.015429500138938642
1,-0.01195643365049567
2,-0.0008100354339416541
3,-0.002135270102569066
4,0.002547705380582214
5,0.0058181004205840065
6,0.021755650227989743
7,0.012066322447487895
8,-0.0022516640440748224
9,-0.008087502539568227
10,0.014238509420572703
11,0.007031669899189819
12,0.0005004990987230928
13,0.004523697250016811
14,-0.013639713861759797
15,-0.0055754330909371635
16,-0.0023208897370864106
17,0.014413928295480875
18,0.012840806135729514
19,0.015186851459921984
20,-0.010354324167247408
21,-0.01600763142654929
22,-0.009816483992225419
23,-0.011004297230436466
24,-0.007953840231956017
25,-0.009068574136322189
26,-0.003053263066580549
27,0.0022554433486088746
28,-0.0025116396443812528
29,-0.0014127563909115447
30,-0.001039692507801811
31,0.0038857741408131518
32,0.00019012552883041628
33,-0.01185667345624768
34,0.0070269615109275815
35,-0.003991121505950431
36,0.014038894895890287
37,0.009191987764554958
38,0.00544004952829656
39,0.005452286475949834
40,0.004592777074108269
41,0.0003569227283573926
42,0.005341357894590732
43,0.01735289147820322
44,-0.008404113932335606
45,-0.0217031477785235
46,-0.009547349442227123
47,0.012417717199226937
48,0.011663232979499586
49,0.011555881586486696
50,-0.014554710582039316
51,-0.02117542041276574
52,0.003749791184446238
53,-0.0120054625268398
54,-0.012534900905759963
55,-0.010596759134666478
56,-0.006233645511026236
57,-0.000349589859235111
58,0.0006311743584716881
59,0.014461665786536295
60,0.02349634266145175
61,0.009147726879209587
62,-0.014003849567614551
63,0.002900354731393882
64,-0.00023050489191379225
65,0.010201931001041463
66,0.0060674531511888345
67,0.0002362167807964024
68,0.0018171010291598826
69,0.017297912677644904
70,0.033267016373174106
71,-0.0056072403345267165
72,-0.028728383412243427
73,-0.022201115030994326
74,0.004969211662804325
75,-0.006036335354600973
76,-0.020543842532654684
77,-0.010967496131217143
78,0.011495675866353422
79,0.013941603392747085
80,0.009953265699640139
81,0.0053489054666904885
82,-0.019472105712303945
83,-0.015718494120037875
84,-0.010868360589450007
85,-0.006927187992154941
86,-0.015116817837542873
87,0.009166882736652013
88,0.02804723811281289
89,0.013368420009046901
90,0.001661277746794419
91,0.007543810107256427
92,0.008881036084957133
93,0.009201723739427804
94,0.007960398299871739
95,-0.014735486239996622
96,-0.015008255624492444
97,-0.013575415865170939
98,0.008153598172015046
99,0.010516184610171925
100,0.007495426334146299
101,0.013112253012569408
102,-0.004155669071475383
103,-0.010179120187656508
104,-0.010471678986756387
105,-0.0016074575150977644
106,-0.005419495051622955
107,-0.010691217058926526
108,-0.005517078391988383
109,0.0005817481097556559
110,0.004315606060684629
111,-0.003160156116172633
112,0.026611633654764245
113,0.011728974365428494
114,0.015479845867156335
115,0.014009756080552466
116,-0.021175738209255873
117,-0.02148057037030341
118,-0.02039095223518096
119,-0.003060482258558578
120,-0.014731128076428337
121,-0.008455398499869614
122,-0.01245369867102666
123,0.002873506589319381
124,0.011708767882646442
125,0.007467714158654543
126,0.0043379556720425615
127,-0.014997220598734904
128,0.018162958483853395
129,0.03655616005723225
130,0.020876938150686263
131,0.02262936148796832
132,0.017384112028240237
133,-0.014414907284570792
134,-0.0202389550221111
135,-0.015456162872774227
136,-0.017409583802271686
137,-0.008911542382235193
138,5.588176832717513e-05
139,0.0015578272302510703
140,-0.007693077437150786
141,0.0001079083641233932
142,-0.0010173103775481165
143,-0.005306138360931316
144,0.0030157091993261963
145,0.006155065535455192
146,-0.00048559864381255216
147,-0.0048197786533281765
148,0.007575543667145623
149,-0.011924731881871297
150,-0.006784325781919743
151,-0.007410228875738584
152,0.0035605073661506784
153,0.014158160802477787
154,0.009062646234012678
155,0.015259006967814652
156,0.00048465635422415953
157,-0.019858027627691816
158,-0.004031370405469166
159,0.007464351536743014
160,0.01080790170741058
161,0.025096330885607417
162,-0.008343372418880252
163,0.0029127716484616604
164,-0.00044018447198444365
165,-0.020467751671207
166,-0.02194895417754494
167,-0.006642740066934653
168,-0.012715913835561385
169,0.008264422557397752
170,0.018406299161412877
171,0.0011518450895694927
172,-0.002372453062419887
173,0.0028640344105709363
174,0.014968566255293202
175,0.00615282296996148
176,-0.0018857289820917496
177,-0.008652091850070372
178,0.01991283057061025
179,-0.0007601996130614042
180,0.001437391215966487
181,0.0010175584916254671
182,-0.0175713964355536
183,-0.015142789756603036
184,-0.01606939831574226
185,-0.0039911802327319505
186,0.0030958832439804095
187,0.0039385694443637214
188,-0.010344764806320302
189,-0.00033506255641776485
190,0.023658629795787738
191,0.002666541955673122
192,0.009101420975500629
193,-0.0002609777341843894
194,-0.012900550066234542
195,-0.002155913129770629
196,-0.0076173853705202455
197,0.015610245017346936
198,0.00857972572092116
199,-0.0038678833383234777
200,0.002452595738945169
201,0.0009416058954177589
202,0.0031670925376007493
203,-0.01035591416977291
204,0.021183952547407688
205,0.03328471017146804
206,-0.01563083374531876
207,-0.012712305659484101
208,-0.01591179665887144
209,-0.010453649003705549
210,-0.008785756211936318
211,-0.009846887202618105
212,-0.016443265598826865
213,0.004553478612410684
214,0.011820133642716502
215,0.00507460585734333
216,-0.000532923374854959
217,-0.008122727348356904
218,-0.009104158480775726
219,-0.005115552575685151
220,0.011896720392558208
221,0.010057651650398828
222,0.02867406150035262
223,0.014097648635505517
224,0.008626479229597368
225,0.002413346800558884
226,-0.0007572044549847712
227,0.002567840658932332
228,-0.010654483205438207
229,0.023988525818956635
230,0.005901902938705435
231,-0.030299532679043725
232,-0.009517465145463463
233,-0.022325248491495933
234,-0.002099865546135334
235,-0.025961107253459997
236,-0.02600361256635085
237,-0.004599796090178727
238,0.018291521407725688
239,0.014512160069993544
240,-0.006501640917040967
241,-0.0029256969747348954
242,0.0173965191778918
243,0.01779030692654695
244,-0.008799555648614368
245,0.02443691190925165
246,0.010020777478830126
247,-0.004477484913638944
248,-0.008442234182317689
249,-0.0011793250967302715
250,-0.0006178721875689493
251,0.017841589888201233
252,0.005926611163024191
253,-0.004073668109472178
254,-0.009316609664552767
255,-0.0071344985862017585
256,-0.012675697740514464
257,-0.018304956668497206
258,-0.019391115153182446
259,0.009621158423453732
260,0.03360238000725566
261,0.0047355127471778195
262,-0.006527589543304723
263,-0.005804805518282099
264,0.007225676010997959
265,-0.0019699202467797945
266,-0.007386902997071109
267,-0.007876413739854548
268,0.009889133140058484
269,0.009708816518331921
270,0.008736271888170718
271,-0.0018009756025477676
272,-0.015310866048951077
273,-0.012287612135987738
274,-0.0009564962933766175
275,0.0023898658118931913
276,0.0035654377628657544
277,0.002412005312542242
278,0.0008411394640585115
279,-0.0020525645318502407
280,0.002070397412750405
281,0.011859398277120639
282,0.012421437715198191
283,0.004344501359247347
284,-0.005086956905593043
285,-0.010619342407462219
286,-0.014169742223169263
287,0.020287689105798305
288,0.015190131612928273
289,-0.017334316946459854
290,-0.01602403285265697
291,-0.017373804134900857
292,-0.0029299552286942976
293,-0.0030448280239362448
294,0.012792889577592234
295,0.04157223997838954
296,0.008064594465887469
297,-0.02043268209579721
298,-0.017318315308184867
299,0.007965444493929066
300,0.04945968076176375
301,0.01497517567314189
302,-0.027318508366178555
303,-0.04583738319484016
304,-0.029674353081707718
305,-0.016588140479745227
306,-0.012351312237314477
307,0.0016853932867521224
308,0.0008388761888068232
309,0.024693606773359526
310,0.01313590075921185
311,0.013748979638569232
312,0.01510759839828881
313,0.014624782018295824
314,-0.0026869570453067655
315,-0.004776758412397889
316,0.00115539548923717
317,0.0039523873601251544
318,-0.002291323933729463
319,-0.006113369116244092
320,-0.0008237135984033254
321,0.009644561631778651
322,0.005541741830692827
323,-0.007838648125796148
324,-0.022684649785361215
325,-0.011132002040327642
326,0.01088486829771381
327,0.020653034212792843
328,0.016568690629861427
329,-0.024728263455212715
330,-0.027708269323628944
331,-0.0039968910560743845
332,0.01351835624761504
333,0.009216395518565337
334,0.03909800356163247
335,0.002308853585634657
336,-0.0030334849443541313
337,-0.013605432236443386
338,-0.020624966446782515
339,-0.015270655254993193
340,-0.02742866984565405
341,-0.013446651375493984
342,0.004113102179180992
343,0.025423624400374333
344,0.025621107224944262
345,0.014187981847485358
346,-0.002173947639695394
347,0.0031022485634019676
348,-0.017438621791586652
349,-0.008154079497677725
350,-0.009711468982436574
351,-0.0005622442219878447
352,-0.0016967073428334617
353,0.012326294370733995
354,0.02650809533864819
355,0.025241118622284127
356,0.00032085473134412174
357,-0.01521062626823962
358,-0.012972889741706434
359,-0.005168351447331526
360,-0.01293292357505494
361,-0.00830439650221384
362,-0.0008711922875077292
363,0.006582986771652016
364,0.004871556891297117
365,0.0007548436069409609
366,0.02286602818864558
367,-0.006486213006984286
368,-0.009927368903282222
369,-0.005423792828809981
370,0.016027776569054387
371,-0.0014695667160660915
372,-0.0037889954759961365
373,-0.011990123795300598
374,-0.007765536175349607
375,-0.012044250012958991
376,-0.00786293753490903
377,-0.0021663109762702065
378,-0.004180062635426101
379,0.006334477963419819
380,0.0028362457229801335
381,0.005585888568819837
382,0.0038774600280112505
383,0.00499629616569915
384,0.010543823328409847
385,0.01270769089471603
386,0.00876201519394032
387,0.02058221789061587
388,0.004532176793921278
389,0.00214743134917204
390,0.003303894578562464
391,-0.003939268621144701
392,-0.043123218162987156
393,-0.00817865178159902
394,-0.001955294791780941
395,-0.001933917275733016
396,0.011616167849105413
397,-0.02205888733122958
398,-0.006458212655020858
399,0.0044434447866467585
400,0.009689123419427664
401,-0.004216325925240074
402,-0.018832982623435086
403,-0.0074050470457549256
404,0.04076503844700292
405,0.02468531148246377
406,-0.01559173699007418
407,-0.010336846110663295
408,-0.00276482572160602
409,0.012088526695426009
410,0.002547562001391214
411,-0.008552956274812834
412,-0.007573318272130291
413,-0.005103344240690479
414,-0.015129622542184567
415,0.0075739577886808265
416,0.017172430648862737
417,0.015018813999813321
418,0.015689564580935404
419,-0.000646439545899713
420,-0.0031393861557511716
421,-0.012362070338815164
422,0.0021033312887006337
423,0.010010160183830365
424,0.002391719317035405
425,-0.008495815662251435
426,-0.008668147148703278
427,-0.020046169952537173
428,-0.01155483830702711
429,-0.012302220617410037
430,-0.005962944383638648
431,0.023314409331459143
432,0.016001820379666593
433,0.0019308737080019874
434,-0.015341894849152408
435,-0.015473281721167045
436,0.01835814190119878
437,0.026257517129042163
438,0.015250250082853717
439,-0.005615181016123719
440,-0.02808996447875304
441,-0.017307941492306734
442,-0.009423883817546365
443,0.013583942420105737
444,0.01558386036490995
445,0.0025869299382229698
446,-0.007889433578724018
447,-0.01723496367470089
448,-0.0047803028397027485
449,0.01476815775439313
450,0.005335681621188221
451,0.022818588868373225
452,0.03269118715086279
453,0.004148783494815962
454,0.00411807598987233
455,-0.014726889101974647
456,-0.0016222049122966873
457,-0.0020148815216180253
458,-0.02362992626139839
459,-0.0035472604686475895
460,-0.02599807451475656
461,-0.0074534451369463635
462,0.007042526338875069
463,-0.018356418308494753
464,-0.009875714100933398
465,0.016812356704409455
466,0.013735775468450657
467,-0.00137987908265539
468,-0.004783144138079327
469,-0.001983661940890606
470,0.007971777178703001
471,-0.006701007926961038
472,-0.00393425335254775
473,0.0023788773228193057
474,0.011347729005306196
475,0.023577954882110133
476,0.008639081698160146
477,-0.017354307988175513
478,0.005735597801070512
479,0.010307345861552748
480,-0.0006872921050220509
481,-0.002619250033616906
482,-0.01011442641688673
483,-0.0011797610306327026
484,0.004688852895218148
485,0.0010145834213740965
486,0.014899723426705643
487,0.0005904213510022106
488,-0.0014759627791912275
489,0.009275135346247255
490,-0.00861933375417173
491,-0.0039575370038059995
492,-0.01518499442054332
493,-0.0226694147965146
494,-0.040728274043307165
495,-0.011305456632200318
496,0.06181177995779002
497,0.015161811044825611
498,-0.010291619810465922
499,0.008705115795582072
500,-0.010209408219820604
501,-0.006535517771191371
502,-0.01855524292267562
503,-0.004561617926221385
504,-0.0028612375610998046
505,0.006369147463034583
506,0.016627817969029377
507,0.014134999179751275
508,0.0071967679358832335
509,-0.004449879624434315
510,0.00021315796170086505
511,0.005382453122515571
512,0.01395028132094568
513,0.012153017696466204
514,-0.011988844110209241
515,-0.010477834634581544
516,0.005166283630890591
517,0.0011852349233582
518,-0.006192054836196772
519,-0.00890232319494815
520,-0.0034322014474791893
521,-0.010230864135538488
522,0.012146998478224976
523,-0.0034484112278926242
524,-0.013942518541374061
525,-0.006653863835888231
526,-0.005697858848279521
527,0.0024001000747625196
528,0.005957638534113201
529,0.004131803132682929
530,0.0017788295609867232
531,0.0049009611354559664
532,-0.0026893578728603516
533,0.00950910023527774
534,0.008634755098716102
535,0.0004718260786113395
536,0.006112308015264572
537,0.009040748341515015
538,-0.003924563533573886
539,0.004879612515248133
540,-0.012937559118126881
541,-0.00010307329852341385
542,0.02045414860726561
543,-0.0032052768826297427
544,-0.014152916025431148
545,-0.01418805382253435
546,-0.0010491492888110962
547,-0.004477592722150481
548,-0.008179389760816077
549,-0.007339756787816604
550,-0.005032340094881457
551,-0.0003417554855922513
552,0.004358397797673852
553,0.005238996779424371
554,0.00599610275133611
555,-0.004026317694140385
556,0.004371295012568795
557,-0.016214622467880045
558,0.006426978425187141
559,0.027889770268409855
560,-0.005262933025801402
561,-0.008192071409085844
562,-0.003715189812100823
563,0.009604666451103371
564,0.02110157925128899
565,0.012387176879086727
566,-0.014006970319771677
567,-0.03575633680465861
568,-0.023073044376306678
569,0.018057020761007563
570,0.0210916980112568
571,0.009746709565436931
572,-0.001301720729189321
573,0.004831952945704069
574,0.003586915765264191
575,0.011900151444409413
576,-0.0024476194746097073
577,-0.020582016996009454
578,0.010028455000380543
579,0.00602500880427363
580,-0.0097654819963664
581,-0.003891659744590108
582,-0.004097242610544326
583,-0.00843626524707826
584,-0.009144584100403315
585,-0.004194983242644124
586,-0.0007955787479831562
587,0.007349655181651284
588,0.011849883554151805
589,0.003969726590631635
590,-0.00854608321496609
591,-0.015107743606238774
592,-0.004120813198176802
593,-0.005684486576559551
594,0.0014498296567945022
595,0.006945545426114341
596,0.012641620079810022
597,0.006963318447569144
598,0.011265150918896202
599,0.007711941326794643
600,-0.0031132990795736566
601,-0.014934202473306547
602,-0.010515215232922287
603,0.006598613964100953
604,0.013307149187799037
605,0.0056027085024111705
606,-0.013590834812640729
607,-0.0010270383525189837
608,0.007112938093891202
609,0.005899761310983677
610,-0.0005276792383124337
611,-0.011710274745935383
612,-0.02092441273631331
613,0.0013710285591331025
614,0.006118004862247841
615,0.026236920925606148
616,0.016248147734119516
617,-0.012488249737402434
618,0.0020386290015143487
619,-0.00466527697099928
620,-0.008006213977608596
621,-0.013134175003898131
622,-0.02399119780460066
623,0.011140720368009786
624,0.029395078685721925
625,-0.004610104295344804
626,-0.0027475862928332487
627,-0.010123175324699099
628,-0.010536266583844926
629,0.0010672352456978142
630,-0.0015115045360627744
631,-0.00026143501247054453
632,0.0013737345610619085
633,0.0017041337755047594
634,0.009437579473073615
635,0.002111034143834272
636,-0.0016118303683471148
637,0.002748523644699963
638,0.008816447083790844
639,0.00863500183512627
640,0.009149661364415123
641,0.0026601172181145425
642,-0.012862665591551163
643,-0.006400697577370303
644,-0.009906878552034974
645,-0.011661621022163223
646,-0.021471782062875748
647,-0.0014796695008132757
648,0.04148261408234861
649,0.03113786311513425
650,-0.0005786260565095007
651,-0.028564589861588708
652,-0.017929922878182014
653,0.01570584550569236
654,0.0010624155688321374
655,-3.919471894721794e-05
656,-0.011659408954669825
657,-0.011227167958667694
658,0.005405109530320052
659,0.0046746180557124175
660,0.0032671263492497944
661,-0.003948469230495867
662,0.0023366019578078268
663,0.017051443085144245
664,0.00887152236945929
665,0.003101534668573437
666,-0.002871618658550199
667,-0.008744278351580809
668,-0.014221973687406079
669,-0.014523873910615229
670,0.012557832852977315
671,0.017004815503824593
672,-0.02742244711709685
673,-0.030498982108788902
674,0.001997557329667044
675,0.004928766053139596
676,0.019778804187913068
677,0.011566734734528766
678,0.0003327427667564539
679,0.0049579908281789375
680,0.013489840897458073
681,0.0043769668901907565
682,0.003769816649576903
683,-0.005534753368182795
684,-0.0036253972163996367
685,-0.002376019395690012
686,0.012923774978893634
687,0.02036315980682812
688,-0.019431508125788286
689,-0.011022821501234868
690,-0.02147098437706304
691,-0.008089229873618193
692,0.03492883557185954
693,-2.4213220765939743e-05
694,-0.02256996032351359
695,-0.013119431888206506
696,0.005816845116560203
697,0.008560902494634332
698,-0.020326620589940555
699,0.00182955677871245
700,0.026859297562500523
701,0.013351356836735401
702,-0.005134206783359192
703,-0.013373667886696625
704,-0.0005045041048864999
705,0.015829042858949864
706,0.0020736531268944055
707,-0.031092510169542387
708,-0.02075644188612724
709,-0.0036882565305860204
710,0.013840805201568114
711,0.004872359382409128
712,0.01681289717451336
713,0.021439197438270483
714,-0.006377988542023148
715,0.002402978361600758
716,-0.016019933893201107
717,-0.0017919353445761416
718,0.00251629894842907
719,0.004590743194633495
720,0.0018487010080900836
721,-0.002191782680074408
722,0.017075387925491802
723,0.011143951784642028
724,-0.011132193367802143
725,0.005240793885434809
726,0.005639773671685296
727,-0.01145460586171138
728,-0.009008452889438731
729,0.009242506105012224
730,-0.011501765489757848
731,-0.011663197534362206
732,-0.009310492079664192
733,-0.019790628803754647
734,0.0061971554929933295
735,-0.022835851845362756
736,-0.01868630775118291
737,0.004959093362982385
738,0.050577064756454494
739,0.03178763549068141
740,0.0128263397982302
741,-0.004334146499786188
742,-0.017857737729005792
743,-0.010258367891741064
744,-0.015828364987389824
745,-0.001480903491825638
746,0.003464136587561584
747,0.004985316882866709
748,0.005310024623046005
749,-0.012407509394363522
750,-0.01769595385873766
751,0.05469730871921355
752,0.0343811398661116
753,-0.01332003898654557
754,-0.013071555100783895
755,-0.00014802828018393912
756,0.007387365718974684
757,-0.0003719098470486902
758,-0.013766894970596485
759,-0.013424994580116475
760,-0.005425887141873762
761,-0.006929651967233421
762,-0.002780432604961615
763,-0.009435808179429593
764,0.001790576532441631
765,-0.0023835569325542467
766,0.003698596477608268
767,0.005946874807488969
768,-0.0030948961393711307
769,-0.010421602047754221
770,-0.008898238555195583
771,-0.0019035142608335304
772,0.019075845946934764
773,0.01696464861546875
774,0.0012491963595854675
775,-0.007151200548835831
776,-0.0020058689307826828
777,-0.0036047151756272208
778,-0.0032362212432640973
779,0.014888881031888759
780,0.00874219338885714
781,0.009252478873700844
782,-0.007532536793032153
783,-0.023270184022051367
784,-0.016418000742037617
785,0.01093051054868682
786,-0.005671901299452723
787,0.010033788829873913
788,0.018545097376765705
789,0.010524275360956186
790,0.010967665545520007
791,0.0013992376931745041
792,-0.0014952091030444288
793,-0.0036997928667733488
794,-0.018510439491302468
795,-0.020457975808245838
796,0.0002760116967909735
797,0.000869711322003924
798,0.01751364684520352
799,0.0028687665191785947
800,0.0045158557297078645
801,-0.00991495430105896
802,-0.004335078889042288
803,0.0016954267645173824
804,0.00016674649606551566
805,-0.01307396384984428
806,-0.019000371904729023
807,-0.002443732267682887
808,0.0019243821610346878
809,0.016431380383380448
810,0.012965615205083122
811,0.030843283290732725
812,-0.003623863441750266
813,-0.027392043962681148
814,-0.012221828180995542
815,0.001281808556728434
816,0.009382379151686215
817,-0.003948313575248786
818,-0.012304042334897815
819,0.006926930175318042
820,0.001570669311520903
821,-0.000538236904173232
822,0.006670244006334312
823,0.006746908683972196
824,0.023224418799535667
825,-0.017011160590232784
826,-0.0049761397192078765
827,0.018033583376821503
828,0.002079480669985946
829,-0.004542082822528157
830,-0.025373359026744584
831,0.002694785152311682
832,0.025485516485821064
833,-0.008624321085745125
834,-0.009708747026534043
835,-0.013130496563805221
836,0.008797484357237333
837,0.00842788671875275
838,-0.005393192237644267
839,-0.00838734810878874
840,-0.003937620607926331
841,0.007709653422316597
842,-0.0014045465767358002
843,0.007654580005996953
844,-0.007025634617083062
845,0.004601395780009458
846,-0.004092196666361896
847,-0.006525442530717813
848,-0.0010804276055133063
849,-0.001735045238172861
850,-0.021252530163992853
851,-0.01916633498990842
852,0.02639661177587913
853,0.0757584219942811
854,0.027151672397719463
855,-0.025458944964276614
856,-0.009004261594872151
857,-0.027107418377642547
858,-0.011233281179018898
859,-0.0032016599383599856
860,-0.006996426592597796
861,-0.013329608352548856
862,-0.009333803404300555
863,0.01383491458936025
864,-0.003171995741310602
865,-0.00865693817774282
866,9.05178320991136e-05
867,0.002446087583941917
868,0.013047621128182632
869,0.004614078057700569
870,0.017106194299823553
871,0.010816754930583615
872,0.0017974907001382873
873,0.005353497566149529
874,-0.00865504571550501
875,-0.02020764849027961
876,-0.004065964766066018
877,-0.015504621452787932
878,-0.020529289065889834
879,-0.0037382021498843024
880,0.022310832436543637
881,0.018975814780327976
882,0.004409394731814504
883,0.009845160918834866
884,0.00818254327055044
885,0.016520726404000697
886,0.00916792599879573
887,0.00010936164321954673
888,-0.023527189622129623
889,0.0044674686986138756
890,-0.005006986984860585
891,-0.013485584444577746
892,0.005569525913064062
893,-0.007688538629847168
894,-0.010569044023446477
895,-0.020502171965566692
896,-0.010558396398267495
897,0.008935338553361977
898,0.02146550382012918
899,0.00653131107100505
900,-0.015772160436415363
901,0.008604370080822937
902,0.011177892983859234
903,-0.00017153019318941459
904,-0.010676367367304686
905,-0.00548975815422478
906,0.005889951602662002
907,-0.005674256433721737
908,0.011103363175018725
909,-0.0007778994041943866
910,-0.0062014454480096536
911,-0.0015979635139626806
912,-0.015264024254547898
913,-0.004749056561373173
914,0.0305976331966274
915,0.018744296972412818
916,-0.014373881706069493
917,-0.019783123625463882
918,-0.006634618066788988
919,0.007840511821571106
920,0.015041117359288914
921,0.018630326311557237
922,-0.0006041859352342131
923,-0.030024513312572262
924,0.003700520785559004
925,0.027374969226975233
926,0.014767984748192988
927,0.008765506404965718
928,0.0011870696960337166
929,-0.015478335002342759
930,-0.04067235801653181
931,-0.008321194056634382
932,-0.0002680815554913889
933,0.017295848761879607
934,0.01334327419045321
935,-0.00147516604745479
936,0.0025927072896223227
937,-0.01262615419589681
938,-0.009004002175394465
939,-0.0017924083072917499
940,-0.024176417916621906
941,-0.005611252948750539
942,0.02074366087777641
943,0.02248205622009807
944,0.015022843916572586
945,-0.010798744881956718
946,-0.01751327087252227
947,-0.003152946230914083
948,0.0012907141260010881
949,-0.010649948653612757
950,0.0047668242040053484
951,-0.0055019633751896314
952,0.017265366976062423
953,0.008532233733972215
954,-0.0027367381182763946
955,0.019344965096509313
956,0.03322745917542793
957,0.020019870710364776
958,-0.03081682902436193
959,-0.042931111220798235
960,-0.01732919382263286
961,-0.0011288471840628159
962,-0.0003385083785158397
963,-0.009813009309262497
964,-0.019666785845841042
965,0.005812561216255355
966,0.0633276021216045
967,0.025087417327147043
968,-0.019178439828006773
969,-0.004219311424362788
970,-0.012787012908307768
971,0.006751922278382921
972,-0.021808253158580003
973,-0.017066759303227465
974,-0.0025417581745206946
975,0.022901573560491627
976,0.01644079576367374
977,-0.0035656567496685325
978,0.014946403937079524
979,-0.003433682425505559
980,-0.013125015214804667
981,-0.017193668754362117
982,0.0034013477353136085
983,-0.0014984416188648037
984,-0.009725567711573936
985,-0.007993348003026198
986,0.006583846941768081
987,0.014424795527518347
988,0.012032733266487896
989,0.00219596994664708
990,-0.02932842718009087
991,-0.02105104441475162
992,0.007207488817271773
993,0.019534360750824674
994,0.024045798266495208
995,0.014364965617067413
996,0.009519222788483295
997,-0.001973330811992602
998,-0.0147541253992368
999,0.00033367195451695485
1000,-0.002268464107966572
1001,0.0004355307393655505
1002,-0.0007801751195503255
1003,-0.013441885390518047
1004,-0.0036620480452058575
1005,0.0023228878917480244
1006,0.0013741370068202459
1007,-0.008580622717832193
1008,-0.002497721174220001
1009,0.010251134091309025
1010,-0.01168653123291659
1011,-0.008289276288104502
1012,-0.005949382132556259
1013,0.004579459703028529
1014,0.008959811759558534
1015,-0.0039488055656957035
1016,0.006657381224125692
1017,0.006122491434006238
1018,-0.0025781436413028595
1019,-0.009411335534723701
1020,0.01906750312373478
1021,0.016771124252388272
1022,0.008560149642030692
1023,0.01934639263164118
1024,-0.010878830629678746
1025,-0.013858347974181867
1026,-0.010667868948841
1027,-0.016640138412418317
1028,-0.021487242817948574
1029,-0.007168429394606025
1030,-0.00015143440428207026
1031,0.0027545077069606894
1032,0.010520565627980498
1033,-0.0065332275095556745
1034,0.004015870424584839
1035,0.006458548354512197
1036,0.004451224109639657
1037,0.0008113264012794951
1038,0.013269597547653226
1039,0.010757525942416076
1040,0.007518160222787331
1041,0.0067550806067122405
1042,0.00704209607349149
1043,0.0005828187985450137
1044,-0.015238350768610548
1045,-0.014976209744755352
1046,-0.011627587101483084
1047,-0.0018406125688322367
1048,-0.006168517992566051
1049,0.007189340598601054
1050,0.008116063000421489
1051,-0.0016816382164397577
1052,-0.014886121344201825
1053,0.009121637743531346
1054,0.007294321674932497
1055,-0.017361131242762194
1056,-0.00795794316942964
1057,0.0008603920522402327
1058,-0.0006259119603962728
1059,0.014096689091079698
1060,0.002688885770283457
1061,0.011116521386375252
1062,0.03489839480257353
1063,-0.006516060793295562
1064,-0.017604439340374988
1065,-0.013964140890533865
1066,0.0007126032346266419
1067,0.006185221570310831
1068,-0.005145525108459902
1069,-0.013799351056963435
1070,0.003085260075272907
1071,0.0076281008655595854
1072,-0.005723579082393251
1073,-0.007129521112377711
1074,0.0009135233144629551
1075,0.004837022876059209
1076,0.012274575134722599
1077,0.006767755054953985
1078,0.010418027486279673
1079,0.010345001673692152
1080,-0.013651877566311803
1081,-0.019909361410567004
1082,-0.01470630157391758
1083,-0.0013913799134139555
1084,0.013386054285970596
1085,0.00422586146915653
1086,-0.009285549771402953
1087,-0.0012498159863328466
1088,-0.0071085438622958625
1089,-0.0008964617881303122
1090,1.8672948657202232e-05
1091,0.004057420347583711
1092,-0.0008725645694500263
1093,-0.0026518956254386328
1094,0.006379889537066515
1095,0.012234689105017096
1096,0.00136078742423343
1097,0.012898046549200706
1098,-0.006104528258896366
1099,-0.015551555672750912
1100,2.369820741015584e-05
1101,0.010885874540633462
1102,0.006305006162200583
1103,0.0030123771746004475
1104,0.01725974121260062
1105,-0.016355208536218996
1106,-0.004050407789001073
1107,-0.01103099370413279
1108,-0.011449948993288162
1109,-0.0034149915827573155
1110,-0.0019301790849881265
1111,0.014260966449909623
1112,0.015200240869463769
1113,-0.0009669886671032028
1114,-0.0011762501928260496
1115,0.025518097535069457
1116,0.015061713425281134
1117,-0.023993355570968253
1118,-0.02691283073598542
1119,-0.008163821465050508
1120,-0.01626247145241046
1121,-0.012082651176601658
1122,0.0017322060903070466
1123,0.012482731836663841
1124,0.007101703940048412
1125,-0.00012503488381161026
1126,-0.01049116545011075
1127,-0.015604430568302616
1128,0.0028003784804335463
1129,0.017831554380943353
1130,0.01873740235808524
1131,0.01659211437017962
1132,0.022598362352413297
1133,0.005028488589546448
1134,-0.015557535721151346
1135,-0.013385424780275105
1136,0.011572220635397888
1137,0.006971129627103166
1138,-0.014850383283094955
1139,-0.014542692431956456
1140,-0.026126010107925212
1141,-0.027363006537060086
1142,-0.01570104533277161
1143,-0.009288466447934587
1144,0.06416485122539817
1145,0.056901284714114146
1146,0.001778988504796864
1147,0.016159713798223042
1148,-0.015559189807368683
1149,-0.015196708418312211
1150,-0.016012293748800487
1151,-0.01896788019658717
1152,-0.012892793146864237
1153,0.009355939752753669
1154,0.005147015801217844
1155,-0.010837642074628876
1156,0.0009762079953699139
1157,0.0015011286489068892
1158,-0.0014810833499528213
1159,0.005134638320566044
1160,-0.0024252702853248785
1161,-0.020453286848794487
1162,0.0064499599902537825
1163,0.008568531435330184
1164,0.008532898439080474
1165,0.016482289045559605
1166,-0.0017499557702073754
1167,-0.006735359509279229
1168,-0.003063569455883053
1169,0.0011144746059753904
1170,-0.0034276281606301154
1171,0.0003167276405981589
1172,-0.007176547538825375
1173,0.006880574617723838
1174,0.0077048114220167625
1175,-0.0077998488201823195
1176,-0.003112799964982987
1177,-0.015149275028686803
1178,0.00024038029030322428
1179,0.019741987205316308
1180,0.01566753316393654
1181,0.02267920915638335
1182,0.014537105500876146
1183,-0.019303741711026723
1184,-0.0049623369009884
1185,-0.020460003883115793
1186,-0.020013351298739757
1187,-0.016065800713721854
1188,-0.0054245585674733855
1189,-0.0017596387383171496
1190,0.007017827019980454
1191,0.0035933014954549567
1192,0.0051850427290323405
1193,0.024117385248464504
1194,0.01280988315553248
1195,-0.001895407521407818
1196,-0.00959950773744924
1197,-0.0016422586981750444
1198,0.000989386984211929
1199,0.0029048547000332884
1200,-0.003619362176049472
1201,-0.008272373010749309
1202,-0.017898381573225812
1203,0.02709443719322479
1204,0.011721014939282026
1205,-0.02016985030681508
1206,0.04610375724530539
1207,0.004000533824778578
1208,-0.030181036002627774
1209,0.005241851060566233
1210,-0.018385194126592456
1211,0.006943113475120323
1212,-0.008025031178705498
1213,0.0036799603361112516
1214,-0.019410700955435824
1215,-0.01556676904652489
1216,-0.010457036485590324
1217,-0.00849956664553337
1218,0.012701363185811563
1219,0.01550539950226936
1220,0.010222554269381333
1221,0.0018862813625098182
1222,0.00852472984906968
1223,-0.007621982049069729
1224,0.0030091262048287746
1225,-0.004128389847197695
1226,0.009210575948192157
1227,0.008768701967050525
1228,0.023088679528417748
1229,0.01148144606561588
1230,-0.017753499792631685
1231,-0.038808605436938516
1232,-0.006727302771544505
1233,0.014929232769927407
1234,0.0016511734420786347
1235,-0.004277145219992767
1236,0.00412139991213656
1237,0.000527072596968688
1238,0.008695342376072536
1239,0.011195228558040306
1240,0.005775028207551767
1241,-0.0038194661516126995
1242,-0.01886733670646198
1243,-0.017692351927439696
1244,-0.021801450266185962
1245,-0.012894820330401926
1246,-0.011423645894085132
1247,-0.002244526454939163
1248,0.04549855938287477
1249,0.05622230617325352
1250,-0.0016353737185866267
1251,0.00046263364524648087
1252,0.006348253123528338
1253,-0.0012397800832318951
1254,-0.000712412780544337
1255,-0.0026374949013161933
1256,-0.0005280643386963751
1257,-0.021593792968643714
1258,-0.01974057840588548
1259,-0.014563685184042682
1260,-0.012056964533082765
1261,0.018563378633725335
1262,0.00760584050727007
1263,0.001398124122494993
1264,0.01632603836976312
1265,0.007250438201927098
1266,-0.02100760671005935
1267,-0.02038971985645682
1268,-0.01102007320120535
1269,-0.0052253874900850105
1270,0.01604568247245375
1271,0.01970099069397686
1272,-0.0016971766703793986
1273,0.006810297583228648
1274,-0.007164884448570781
1275,-0.004737641031901305
1276,0.010273995593815276
1277,-0.015011725989852365
1278,-0.006224082071087518
1279,0.006091630431235063
1280,0.004229557196957586
1281,-0.0028344013168366215
1282,0.009422150552726287
1283,0.015241635512322929
1284,0.009040899238970963
1285,-0.0015775884619289738
1286,-0.007889864676713477
1287,-0.00879181348867214
1288,-0.007494703389548968
1289,-0.012643456880356736
1290,0.012556183310456413
1291,0.0046325901669739145
1292,0.005712578876994637
1293,0.014565192090453224
1294,-0.0022027617137959157
1295,-0.011896582602362545
1296,-0.004660707464185442
1297,-0.004420015675116504
1298,-0.001030030797179408
1299,0.002357474156240701
1300,-0.0195595748171857
1301,0.007030828593458044
1302,0.052242754214234875
1303,0.025313775691176627
1304,-0.03859502343498375
1305,-0.019610263469551477
1306,-0.020264105463111793
1307,-0.006900464443797544
1308,-0.001110192357725465
1309,0.019743822210040802
1310,0.0026214182065677424
1311,-0.018082300320937123
1312,0.01322662045758089
1313,0.0036994202146986887
1314,-0.004714209945585001
1315,0.003157608633142017
1316,0.005410671594915875
1317,0.003694777157931038
1318,0.0025848676314293084
1319,-0.028035654992772746
1320,-0.007857945101086717
1321,-0.001608590127276377
1322,0.008075336274369899
1323,0.004594611936220768
1324,0.018648540899355977
1325,0.023880379374429175
1326,-0.005999047258640273
1327,-0.02328936119012652
1328,-0.0077937924062519166
1329,0.003281584213203464
1330,0.002593182836488495
1331,0.02197317202029164
1332,-0.0057160991652298754
1333,-0.010277225261820948
1334,-0.013783803470250624
1335,0.0013411054693554473
1336,0.013438266819898499
1337,-0.0036435088027005
1338,-0.024091381450388055
1339,0.008294261954686634
1340,0.02860040579706313
1341,0.004991213265888793
1342,0.01760465103601811
1343,0.008364667105551685
1344,-0.012068862253585486
1345,0.0024229615178317492
1346,-0.004915909527423835
1347,-0.015351997286966786
1348,-0.0021984970527505433
1349,-0.0019443671782541161
1350,-0.010226944438240033
1351,-0.012653392842035616
1352,-0.002497914279797013
1353,-0.0024090507396739903
1354,-0.02041066481321255
1355,0.004773769262344655
1356,0.02831231777531393
1357,-0.02835644837783413
1358,-0.008041591691120165
1359,0.0013967259919850789
1360,0.004420481134089384
1361,0.020635128105379378
1362,0.006590010268045994
1363,0.011207446836316302
1364,-0.010925001780429504
1365,-0.011427816846139447
1366,0.015536695477170367
1367,0.04073028356332058
1368,0.026257895068128978
1369,-0.0035589990818040373
1370,-0.019145874549303513
1371,-0.02280231178885604
1372,-0.007925457216969266
1373,0.004674741995719712
1374,0.0060259612490786785
1375,-0.004111346652169959
1376,-0.008368558854354769
1377,0.015010536982656676
1378,0.004352590668931554
1379,-0.006568165838995051
1380,0.0012081400112367094
1381,-0.014241534293743764
1382,-0.02020818657246307
1383,-0.01399877889743584
1384,-0.01063345808393583
1385,-0.008548681628054208
1386,0.007917802105617681
1387,0.02216086771089817
1388,0.016314788535703006
1389,-0.0008293735880194834
1390,-0.003654448539084582
1391,-0.0017084996836379644
1392,0.0009470223984031738
1393,-0.003942755522230038
1394,0.0011699510086287494
1395,0.004935014763884206
1396,-0.00813874845479882
1397,-0.0060956314695621225
1398,-0.0011846920053231076
1399,0.023273468127838225
1400,0.011850127501832935
1401,0.009947892393415387
1402,-0.006100565511955305
1403,0.0174146780212581
1404,0.007336850121120499
1405,-0.02861364174201234
1406,0.010402760895839778
1407,-0.009343472785713947
1408,-0.008740324180721907
1409,-0.006738817158397191
1410,-0.009920157395162735
1411,-0.026021769362233726
1412,-0.0001557960168654931
1413,0.020798376620805685
1414,0.015554032975213473
1415,-0.007679968022173595
1416,-0.020468608504267793
1417,0.002793911092453064
1418,0.007885573563779615
1419,0.006664430392296699
1420,0.006650100591768513
1421,0.0054085093834915655
1422,-0.008559562954841607
1423,-0.0015679792283522127
1424,0.003883848543506589
1425,0.019382760836484797
1426,0.027416236123280556
1427,0.014609294938623679
1428,-0.014247985892125118
1429,-0.020396213442651284
1430,-0.023892079798543644
1431,-0.01295882504044283
1432,0.0068640098618258415
1433,0.009130342273287833
1434,-0.00739918364378845
1435,-0.005608632016209753
1436,-0.014093572436532434
1437,-0.0063440403791774685
1438,0.008443113600875725
1439,0.009130206549366068
1440,-0.008964464315208715
1441,-0.008169461567607911
1442,0.019516956446626776
1443,0.003499105685103268
1444,0.009755447567339042
1445,0.0064439215583359044
1446,0.009708778682213436
1447,-0.00708187080400827
1448,-0.011457822530171025
1449,0.0022207338273034886
1450,0.0021094284125204206
1451,-0.011966964681210805
1452,0.007011807826683128
1453,0.0032079974335667474
1454,0.009394024896672811
1455,0.036142289213981285
1456,-0.0012542486697971165
1457,-0.012668069753376438
1458,-0.022543721195342457
1459,-0.04610721288630451
1460,-0.0014665801621022313
1461,0.0412510263622962
1462,0.006323089732410663
1463,-0.004608138335691901
1464,-0.0026137766691817065
1465,-0.010046224241338615
1466,-0.01695401525836427
1467,0.00819192523870765
1468,0.011874392204989138
1469,0.0006676057324761396
1470,-0.0024746514982649324
1471,0.004144036596440441
1472,0.0065267514191999065
1473,-0.004625197673707256
1474,-0.005230773529091438
1475,-0.027322052791943927
1476,0.016656625982795856
1477,0.001387725163402763
1478,-0.003470603099397177
1479,0.02987623219888972
1480,0.00729943533986494
1481,-0.009033559686037555
1482,0.0014156278537665909
1483,0.016035345846506063
1484,-0.012764177733535687
1485,-0.01193543943218411
1486,-0.00947490064513061
1487,0.0011990442232079623
1488,0.008750565170506729
1489,0.014900138723057569
1490,-0.0009189857513095471
1491,-0.021273487987837326
1492,-0.014470020785797727
1493,-0.009408314490353197
1494,-0.004754967346431931
1495,0.004943797719986548
1496,0.00744137903719585
1497,0.0018765975389252003
1498,-0.005014961881275856
1499,0.0012471404702922694
1500,0.028249634917253862
1501,0.016369545013356725
1502,-0.006471605199051376
1503,-0.002435688137130282
1504,0.005127489268388949
1505,0.00335367580323958
1506,0.008868898563665111
1507,-0.01775591506447184
1508,-0.018980614473212896
1509,0.0012702435719447423
1510,-0.007760652366494118
1511,-0.0053761456085650704
1512,-0.009130693568982605
1513,-0.00013496461336284793
1514,-0.0010043868944690053
1515,0.007129851844636095
1516,0.012184848506671
1517,0.013112002558013494
1518,0.01373095722678311
1519,0.019331583319321693
1520,-0.0003920612556666441
1521,-0.01936496135029711
1522,-0.0010026393380528449
1523,-0.02405437571459189
1524,-0.020217068699854075
1525,-0.009193363337171011
1526,0.018742950108574127
1527,0.006978924631183115
1528,0.006764575889445615
1529,0.02522764431200715
1530,0.015447447600053881
1531,-0.00510690932440057
1532,-0.022715825238255178
1533,-0.016845629035404003
1534,-0.014153948099808132
1535,0.005348360418803026
1536,0.007101161799146572
1537,-0.007832488982414787
1538,-0.007339936480910814
1539,-0.00020337916206232542
1540,-0.0016894399180754482
1541,-0.00025888983811832994
1542,-0.006838564455827444
1543,0.03427704017503483
1544,0.01657093207661544
1545,0.009741129990495666
1546,0.018701981065707907
1547,-0.012194516335924364
1548,-0.014063701356246159
1549,-0.017373647073249402
1550,0.004181400252776366
1551,0.0020203182939114673
1552,-0.008921009973093152
1553,-0.010501653027000502
1554,-0.010524366146149575
1555,0.006016022646812634
1556,0.021047450895900974
1557,0.010935703358113006
1558,-0.0038830162885967693
1559,-0.012234580374106546
1560,-0.01626027703106311
1561,-0.00671069774627636
1562,-0.007799586454051963
1563,0.002062314727421093
1564,0.013514103577500197
1565,0.02496614599214599
1566,0.01315590156950219
1567,-0.015848026667680565
1568,-0.007333207399179477
1569,0.0037385428109620996
1570,-0.0035089887081498888
1571,-0.012017342280747622
1572,-0.010863391760589888
1573,0.016749520957902237
1574,0.03933106491310781
1575,-0.004935289791483625
1576,-0.014193573816775159
1577,-0.01444888907626823
1578,0.0006811060435289963
1579,0.022814831793177264
1580,-0.010671427683229043
1581,-0.013952126162542558
1582,-0.005934023271592232
1583,-0.00038459158158216794
1584,-0.005298267289056512
1585,-0.009046150897879775
1586,0.005796951341375505
1587,0.001468212216296106
1588,-0.009979443541675645
1589,0.003307083729796278
1590,-0.00423870808342329
1591,0.008482202952457728
1592,0.043680932799977604
1593,0.0037734764768019855
1594,-0.03242910384068564
1595,-0.01511238221241357
1596,0.00030835543776030865
1597,0.010821206008090629
1598,0.01042491127855524
1599,0.0007235121547073536
1600,0.0004744921527463381
1601,0.009317754674671668
1602,0.010197302871792746
1603,-0.009362672433604034
1604,-0.010811137743040908
1605,0.0063914786398501615
1606,-0.0024349043573559537
1607,-0.009947025369040987
1608,-0.02365885841533294
1609,-0.0252170305488624
1610,0.0390516030743116
1611,0.03087603064098556
1612,-0.021061563270761016
1613,-0.006585144454920365
1614,-0.00228214079160159
1615,-0.0016787564095552994
1616,0.027099801956013553
1617,0.029814350397283244
1618,1.115730296881532e-05
1619,-0.000328315356412528
1620,-0.017430530571227537
1621,-0.02350255528865121
1622,-0.01929999734620487
1623,-0.018907547761997663
1624,-0.022412262649551297
1625,-0.013840970148868039
1626,0.0019640503091903766
1627,0.007123160343811243
1628,0.029600872157928147
1629,0.05703364072699201
1630,0.01649104383706298
1631,-0.022968235540315032
1632,-0.004489544285615958
1633,-0.003635204205567612
1634,0.016421705899504438
1635,-0.004462348881151216
1636,0.0030741195915434706
1637,0.0025009751567102345
1638,-0.014034862865010014
1639,-0.011609442555206536
1640,-0.012650787185872932
1641,-0.006997446490542054
1642,-0.011789557959244525
1643,-0.004806533514484424
1644,0.009149179261883965
1645,0.0100460133357645
1646,0.023622805659599167
1647,0.0032750165679086545
1648,-0.0049432613113727705
1649,0.0163055238546216
1650,-0.010606876262315828
1651,-0.0022687253178621074
1652,0.004430276205084943
1653,0.010137100724096192
1654,0.0005199192983723205
1655,-0.010793137262996768
1656,-0.025186181468285475
1657,-0.001971738163271815
1658,0.004543770860948051
1659,-0.027646204899365912
1660,-0.023697332491739963
1661,-0.005560764853686784
1662,0.021015121598185936
1663,0.02696048435140246
1664,0.01313115975141989
1665,0.011425117713900318
1666,0.007524963125298408
1667,-0.002759343817293229
1668,-0.0003569366269167446
1669,-0.002427476070385866
1670,0.009106776904184946
1671,-0.007291366455501259
1672,-0.007864760451389747
1673,-0.009676017464705797
1674,0.007779377522192442
1675,0.005728572934044019
1676,0.0037961065415550647
1677,0.012110338008299033
1678,-0.002447346669234079
1679,-0.002572557223435772
1680,0.0014406476218716243
1681,0.001229747619459859
1682,-0.017974591521355953
1683,-0.0006351314598094871
1684,-0.019895390947921778
1685,-0.005243407293466892
1686,0.0056511183142857165
1687,-0.005418520478348711
1688,-0.008899386316648645
1689,-0.009879491452902645
1690,0.015990492366123453
1691,0.002233259516356211
1692,-0.01237719552714577
1693,0.0033891711376526495
1694,0.014721789368507593
1695,0.02676455367702708
1696,0.017001533501693717
1697,-0.0032719792209826865
1698,-0.0016580279923637496
1699,-0.005792003770971501
1700,-0.0015297851102741601
1701,-0.0019371512491941504
1702,-0.006038045024217277
1703,0.0025025930361866977
1704,-0.007541007833548833
1705,-0.006893436781553387
1706,0.015903928929537414
1707,-0.000823706344325029
1708,-0.013803458833606851
1709,-0.016141721274325546
1710,0.004522935559591846
1711,0.03196643097751051
1712,0.016001077568030975
1713,-0.025322007883632716
1714,-0.009799479412725003
1715,-0.011490131372587661
1716,-0.01849682251641449
1717,0.02314084345644519
1718,0.020788261939894498
1719,0.0023357827451497234
1720,-0.001343251870952267
1721,0.001379536545842541
1722,0.0010573348171032599
1723,-0.008739475835929926
1724,-0.0022315538000758028
1725,0.001257140140615766
1726,-0.004298903030443163
1727,-0.01836584913011478
1728,-0.02973302239032994
1729,-0.00835211113106356
1730,0.0020075713347998386
1731,0.013525462620116653
1732,0.010173007511463316
1733,0.013146406442967882
1734,0.014930421517002898
1735,0.030215816378854718
1736,0.00626113416491095
1737,-0.014095674432355907
1738,-0.016928302454666776
1739,-0.025089377980453385
1740,0.0033107730462626807
1741,0.013438229543118036
1742,0.010915439462480093
1743,0.006735026785498618
1744,0.012622555538412777
1745,-0.0030098702918916545
1746,-0.015358521857233838
1747,-0.01246101030374765
1748,0.016724555126789314
1749,0.023125580903328533
1750,-0.0003506013113301421
1751,-0.010560451571690886
1752,-0.0054546560222687186
1753,-0.0007535873805452485
1754,-0.02565965267814662
1755,-0.001293771886938903
1756,0.020264746910223334
1757,-0.019669401083714774
1758,-0.008808923546949017
1759,0.012091869732033654
1760,0.0014979993665423606
1761,0.004778862066444738
1762,0.003956993308381641
1763,-0.022087630903716148
1764,-0.013693995767672025
1765,-0.015892947714206546
1766,0.03202423175551374
1767,0.04778665340727194
1768,-0.01188164933371634
1769,-0.0014381738832502271
1770,-0.011785647840886676
1771,-0.015904984675318867
1772,-0.013071155945108937
1773,-0.008195781407536356
1774,-0.012996203764304116
1775,0.00043814382268940813
1776,0.027749900371402462
1777,0.018158134772380326
1778,-0.009551693970970738
1779,0.001029123889250404
1780,0.0018858276753763187
1781,0.009835349278973414
1782,2.9276553896683682e-05
1783,-0.012281883681671725
1784,0.000818917447246487
1785,-0.014089734097927483
1786,-0.011055875841730373
1787,0.030957381002187125
1788,0.04498850626131851
1789,0.009356557214476955
1790,0.00143686461455535
1791,-0.020163736358359833
1792,-0.014635841862379585
1793,-0.003970940909966974
1794,-0.0033501389904658776
1795,-0.014182237431948786
1796,-0.010264963525823616
1797,-0.01373861932276996
1798,-0.013465670661665811
1799,0.00348105705883049
1800,0.0004953448282056568
1801,0.0003318951254244664
1802,0.007946354947253388
1803,0.003488459571202999
1804,0.01037129273963763
1805,0.015648739000548292
1806,0.0020543660443105467
1807,0.007968096582886306
1808,-0.00032436526093019245
1809,-0.003937986484506135
1810,-0.009945933825873322
1811,0.0070715054977584044
1812,0.001968760165426761
1813,-0.01635318957751205
1814,-0.008824820318877356
1815,0.01379804163700611
1816,0.01714722463959623
1817,0.003909313384570448
1818,0.013129883067008727
1819,-0.011412441630440993
1820,-0.015299421540490061
1821,-0.024260014368467323
1822,-0.007366099779799249
1823,0.02087000271283226
1824,-0.009098618617043263
1825,-0.004854204285153251
1826,0.015337020933384144
1827,-0.0020546492686268833
1828,0.0065388465470477665
1829,0.00661807387820866
1830,-0.01741757127649468
1831,-0.019619864007100314
1832,0.004980498408783126
1833,0.021950807273412785
1834,0.0015522668368873208
1835,0.007280138656267301
1836,-6.675899681401077e-05
1837,0.001100965312021713
1838,0.0014900811381261111
1839,0.004173336904070928
1840,0.005903589629777968
1841,0.00616045298916645
1842,-0.009311989112386291
1843,-0.022571722032927368
1844,-0.013109082116394687
1845,0.005912798325040546
1846,0.013052031624953104
1847,0.005858592152511817
1848,-0.01444348616537739
1849,-0.011536367260925521
1850,0.005387918120524578
1851,-0.0009265142990039759
1852,-0.0035285302858569113
1853,0.009466626223433926
1854,0.008267478735315801
1855,-0.007932123376728033
1856,0.01607061146205465
1857,0.00638207258639817
1858,-0.0016353350714266753
1859,-0.024935002455041353
1860,-0.009908732242348544
1861,0.0034564229655762724
1862,0.004782881024311068
1863,0.014220502230549764
1864,0.021264988236707395
1865,0.006726215596432784
1866,0.0003944883211033654
1867,0.013440678762903073
1868,-0.0026430275391218956
1869,-0.001916890350280456
1870,-0.006365706926571919
1871,-0.01612042365583812
1872,-0.020057329557618016
1873,0.0030054952142055803
1874,-0.006381509600574653
1875,-0.002107504896111804
1876,-0.004871893798380777
1877,-0.017277296066726674
1878,-0.0014668316532065167
1879,0.0012914069249279642
1880,0.01595801900865502
1881,0.009438678049298637
1882,-0.007585932892394351
1883,0.006677724318106363
1884,0.01153827580109431
1885,0.011997467202427337
1886,0.015712150489425914
1887,-0.01308980327866977
1888,-0.015212994855402574
1889,-0.021074317044589567
1890,-0.010769290780544933
1891,0.013068154218775533
1892,0.0007826531484138536
1893,0.009558388070044293
1894,-0.00023947941322753456
1895,0.013145220036345537
1896,0.007845494021564698
1897,-0.01483215022518958
1898,-0.012261286961661932
1899,0.006777030442212806
1900,0.02388399449769679
1901,0.028948434304203505
1902,0.007946309946428292
1903,-0.02189035668581017
1904,-0.0037785295205420696
1905,0.0015080579067859152
1906,0.0047899748488388506
1907,0.008627728323457113
1908,-0.011533597319506626
1909,-0.03399373761087378
1910,-0.026237641515584675
1911,-0.018093351913693635
1912,-0.01699667575073254
1913,-0.019095139314277046
1914,-0.0049619919837381
1915,0.06302735195203382
1916,0.03550831688207361
1917,-0.011088150011261653
1918,0.005840323327271888
1919,-0.010484925249163866
1920,-0.004424378523618461
1921,0.0013897166988822915
1922,0.015552375631351962
1923,-0.00087417944614104
1924,0.0001497281569545674
1925,0.014448127497596634
1926,-0.013186044580032958
1927,-0.03077646711824478
1928,-0.01859890991475081
1929,0.03225802164235003
1930,0.06316164357905704
1931,0.022140556427394584
1932,-0.01271745402617027
1933,-0.033364407545871264
1934,-0.0427262352141372
1935,-0.011778185532129951
1936,0.012020476728851004
1937,0.02495485360109874
1938,0.0025644619201051493
1939,-0.008479558775947253
1940,-0.012263720984274562
1941,0.002137450280706326
1942,-0.01321113500186246
1943,-0.006019614160513815
1944,-0.0013170903486113845
1945,0.004185152758450882
1946,0.01590782458256067
1947,-0.003951744315197496
1948,-0.006571301616631893
1949,-0.008106674654443303
1950,0.018060851534544852
1951,-0.0032668461430164775
1952,0.0023809759916694285
1953,0.01161637591633493
1954,-4.759943276083992e-06
1955,0.012356151397657207
1956,-0.00632746543525669
1957,-0.015931215624221336
1958,-0.00219973158659747
1959,0.010923596416282775
1960,0.011991813095187518
1961,0.0006308161667893776
1962,0.0032870374548898476
1963,-0.020121777338712548
1964,-0.02915164742336463
1965,-0.006094786788076062
1966,-0.0038169757535659044
1967,-0.0004046708323388083
1968,0.005384999177264614
1969,0.018389377571257956
1970,0.0215165635866048
1971,0.01860602598023224
1972,0.004696674329597031
1973,0.006448638575897465
1974,-0.0067668403984908025
1975,-0.020676183620185938
1976,-0.005220077844046749
1977,0.000760471630247667
1978,0.004293509641525263
1979,-0.007605070472124505
1980,0.0018359734287347797
1981,0.007373369925396237
1982,0.005771718100549796
1983,-0.0007571183384313404
1984,-0.0024932560037449667
1985,-0.0023044772140676587
1986,-0.006456132071446671
1987,-0.022393599834839288
1988,-0.019057437290997733
1989,0.02243042705916248
1990,0.0248028999173227
1991,-0.0002822746978867769
1992,-0.011137824849025254
1993,-0.01160172025723606
1994,-0.01663472284161167
1995,0.008409254759403857
1996,0.011971927128018478
1997,0.0019654666039912866
1998,-0.0068892351097621565
1999,-0.009092930464468168
2000,0.013194631246830095
2001,-0.00026309615363331526
2002,-0.008300822432873393
2003,0.02335080253277068
2004,0.02566644862543731
2005,0.007952639760933565
2006,-0.013849564599995763
2007,-0.019543918071203977
2008,-0.006722826582262986
2009,0.0058642578251850465
2010,0.003304504141593523
2011,-0.016998799114539293
2012,0.00019504705933573712
2013,0.006348841882620359
2014,-0.011215446824646234
2015,0.0019364453959747254
2016,0.00133631051277547
2017,-0.0074951292997022766
2018,-0.0005551192756711038
2019,0.00975099180077519
2020,0.011443050167947907
2021,0.004428538202371023
2022,0.008670220743509052
2023,0.0006529661820631983
2024,0.0056101071870277444
2025,-0.0017757727135471737
2026,-0.012743963810956339
2027,-0.015036482297360942
2028,-0.0028457467684910483
2029,-0.014263285361984223
2030,-0.012331492621114635
2031,0.027991872731335948
2032,0.029642169396238125
2033,0.013999786532655196
2034,-0.0025401140364189317
2035,-0.012279464147150523
2036,0.009721051993898812
2037,0.011242393835619134
2038,-0.00857913847807662
2039,-0.017051361043841994
2040,-0.02170438992887085
2041,-0.024327121441671304
2042,-0.011875314369813511
2043,0.012759499345571617
2044,0.0025433609305632685
2045,0.0061697341170774325
2046,0.018469175448752012
2047,0.02746316107311703
2048,0.0030907049829220364
2049,-0.03596428265796709
2050,-0.019019251587359863
2051,0.00836380104172077
2052,-0.014472732474218316
2053,-0.004150317564251474
2054,0.029580325275302268
2055,0.014961181490373216
2056,9.481087625548296e-05
2057,-0.010538706882844827
2058,-0.014777051099046118
2059,0.0049548692728265484
2060,0.011463710531684605
2061,0.010319683778601093
2062,0.008302290407024328
2063,0.010626092227894115
2064,-0.00202217781336782
2065,-0.015678957687484323
2066,-0.016322366227446698
2067,0.01079857833446581
2068,0.02053779699849559
2069,-0.005552676549168442
2070,0.0017830741971517003
2071,-0.010140416431435647
2072,-0.009671658883822671
2073,-0.005571840470388944
2074,-0.004696502019019449
2075,0.004272696040567687
2076,0.013498220478508632
2077,0.00030126282651361715
2078,-0.017986685940256247
2079,-0.021888069120481687
2080,-0.03660539029745908
2081,0.001097601674761424
2082,0.06574634907802959
2083,0.02206086090829767
2084,-0.0005077231738017125
2085,0.01967945233533751
2086,-0.00042849613263000116
2087,0.007515580871593064
2088,-0.001305612042942814
2089,-0.011979982550678255
2090,-0.02800687914623772
2091,-0.03566337484117897
2092,-0.009241583330939673
2093,0.0037548592623938525
2094,0.011461658649505366
2095,0.008182940020982559
2096,-0.005025543751033612
2097,-0.01188168536249006
2098,-0.00792283274680649
2099,0.0086086661059041
2100,0.02072912757317773
2101,0.022410723045990875
2102,0.011911641008213767
2103,-0.006179694310670583
2104,-0.011157958375618055
2105,0.002298090079393727
2106,-0.005266566716938989
2107,0.0013402336545356996
2108,0.013976756929238778
2109,-0.014129293643642812
2110,-0.005037407131680707
2111,0.010746942712175227
2112,-0.014804775933241728
2113,0.021532262554249514
2114,0.028369336147720137
2115,-0.020621254586129574
2116,0.01006393766530045
2117,0.004456302350191906
2118,-0.007464275404411633
2119,0.0023990574746425913
2120,-0.02693248436473946
2121,-0.026839471074658262
2122,-0.02959302897170027
2123,-0.014529490791415361
2124,-1.9106556867943755e-05
2125,-0.001388394324363159
2126,0.0021056914472636287
2127,0.01993352234178953
2128,0.03158570376706519
2129,0.027405351437895277
2130,-0.007201038072583828
2131,-0.009890061851268674
2132,0.019702617311632902
2133,0.009649728031264251
2134,-0.0032937036675361724
2135,-0.017665979842711895
2136,-0.025482342360070367
2137,-0.0036037588331906175
2138,0.03058177156272373
2139,0.0249678348138924
2140,-0.007848981426973912
2141,-0.011180232384960015
2142,0.0031631871517469375
2143,-0.00767252923884592
2144,0.0054099894503148805
2145,-0.0030482535716372825
2146,-0.006149057420053423
2147,-0.006450601359854319
2148,-0.0017343219211541474
2149,0.006287065992332101
2150,0.006270179807321498
2151,-0.004868448271508386
2152,-0.021843652188950582
2153,-0.0006833965447215467
2154,0.010648731342918794
2155,0.004465068112013858
2156,0.003982656253987983
2157,-0.01354760148670182
2158,-0.0253342079207799
2159,0.024946759949381083
2160,0.016419502375391446
2161,-0.0009078322613322743
2162,-0.0007315705239597497
2163,-0.005988623167322978
2164,-0.0016227700091121736
2165,0.003757774145545967
2166,0.006753633876778316
2167,0.002578660065195418
2168,0.007220873564796414
2169,-0.0013323344305537607
2170,-0.011680083888164836
2171,-0.03083370330539666
2172,-0.0007120121261223588
2173,0.013981075979799671
2174,0.0027990305480294717
2175,0.004507658199811597
2176,0.015442397915518453
2177,0.011626075778095473
2178,-0.00889941086766972
2179,-0.016882350520697528
2180,-0.010780146169378623
2181,0.021959674600035287
2182,0.016776650776147033
2183,-0.0029289662424491682
2184,-0.0011870095626923766
2185,-0.0029574857857120737
2186,-0.010003627097899963
2187,-0.006465875302388506
2188,-0.0034138113530474473
2189,-0.004912413024262343
2190,-0.006093817290294894
2191,0.006141971833053147
2192,0.00662359261215759
2193,0.0008763440119081093
2194,-0.012463103204153609
2195,-0.0004784917273200195
2196,-0.0032550545798719355
2197,0.021011796978044308
2198,0.02283990978158796
2199,-0.02130170515883703
2200,-0.010579241999734281
2201,-0.003005980757277156
2202,0.008170632290871074
2203,0.007541641286514155
2204,0.003992725379330619
2205,-0.002208954727263666
2206,-0.009450731176338207
2207,0.0030633623929836413
2208,-0.003336994757448551
2209,-0.012920794652259482
2210,0.006046941125406184
2211,-0.0031275082330274734
2212,0.0006544382223388906
2213,0.00271485558350402
2214,0.026576490754376705
2215,0.01646748690396415
2216,0.00572984956986116
2217,0.004598848097805589
2218,-0.008607728124147633
2219,-0.010811534238993253
2220,-0.023030476501957747
2221,-0.015319389909603562
2222,-0.009954864708549643
2223,-0.00793086710707547
2224,-0.0016191463897333776
2225,0.006422061716163276
2226,0.004583650665363019
2227,0.005849061873127689
2228,-0.015142558468401198
2229,-0.01111685100270978
2230,0.004504255585225813
2231,0.01833748969252664
2232,0.021063978022013534
2233,0.017175176943528332
2234,0.00039816207727055505
2235,0.009579090875550025
2236,-0.001047989513136019
2237,0.0012506808838614503
2238,-0.010485623901744064
2239,0.007797444675979027
2240,0.0214996668758995
2241,-0.018293290383631564
2242,-0.01918281215407653
2243,-0.028432565208693972
2244,-0.005063801254476509
2245,-0.006311200589256536
2246,-0.010761427594848948
2247,-0.024136447335338495
2248,0.04639076880103184
2249,0.04651235528953136
2250,-0.003505963761973588
2251,-0.00781030458692593
2252,-0.014107931137993156
2253,-0.009364522627270127
2254,-0.012150713352808389
2255,0.014498176215862277
2256,0.007284107707816631
2257,0.004721227131548736
2258,-0.0023516829977375244
2259,0.006114562514858665
2260,0.004015102119644468
2261,0.0004003910113091632
2262,-0.0049021606585388025
2263,-0.015675514745435232
2264,-0.020494400257138314
2265,-0.00802900388869996
2266,0.0007564109712361478
2267,0.005692809413097301
2268,0.006567754222354906
2269,0.006889644172876271
2270,0.01081762097965835
2271,0.0014636105219004627
2272,0.011379915308427274
2273,0.017990378146212245
2274,0.0058094908699984765
2275,-0.01348357374098955
2276,-0.021087333171841853
2277,-0.026908184868541428
2278,0.017944731330834948
2279,0.014037594748102122
2280,-0.0064234746013401775
2281,0.008188635604681659
2282,0.011515975916839118
2283,0.00924683956676842
2284,0.0014504194767309049
2285,-0.014307916745516704
2286,-0.033939210644851385
2287,0.0016192598641545358
2288,0.007864454584695507
2289,-0.0060982348795972675
2290,-0.010237530153919235
2291,-0.0005877653857424836
2292,0.010020559013782427
2293,0.008118332246717019
2294,0.00011839164174646047
2295,0.0025833845846381653
2296,0.022384714169822757
2297,-6.74921270013406e-05
2298,0.006639511691573937
2299,0.007565244237323753
2300,-0.010132103969247332
2301,0.001426431074832544
2302,-0.0014113498270091362
2303,-0.015989348349124476
2304,-0.0029516707720914468
2305,-0.005991245555950056
2306,-0.012522379251619732
2307,-0.0034849270599592846
2308,-0.008029674026898406
2309,0.005667255840075746
2310,-0.006643052371842158
2311,0.0075907405579651085
2312,0.011155184739136605
2313,0.006370431142165335
2314,0.0003069201596870366
2315,0.002851700470091167
2316,0.0065383741115417685
2317,-0.0022245226731362287
2318,-0.006642751530461873
2319,-0.012470460905901412
2320,0.016063755849003193
2321,0.032140984188362795
2322,0.014303644280219144
2323,-0.022254776936896647
2324,-0.01794809092544479
2325,-0.007552984112081515
2326,0.00022188619506873127
2327,-0.017627380006768396
2328,-0.014376214492023134
2329,-0.010822823790535254
2330,0.019599591895511453
2331,0.02890340421994536
2332,0.01651331919596364
2333,0.011489951789977424
2334,0.0025873286569841544
2335,0.007642593243003603
2336,-0.02365907207945165
2337,-0.012168615878497418
2338,-0.02252121805545902
2339,-0.0100615545774558
2340,0.0026351821877580762
2341,0.011858772204850345
2342,0.011210088315518566
2343,-0.0004791557551606278
2344,-0.010344812538505131
2345,-0.013999755457388657
2346,0.0070883448071983836
2347,0.012410332007809033
2348,0.004258778247658169
2349,-0.016946384867420415
2350,-0.013409916524677728
2351,-0.010641173840711084
2352,0.021413972753576826
2353,0.0153403294724274
2354,0.004304000840937421
2355,0.0194554205563211
2356,0.0009965955055234333
2357,-0.01307609246839776
2358,0.002908259970157448
2359,0.01773545075546572
2360,-0.005649871083211388
2361,-0.019263408170822786
2362,-0.020146202270687544
2363,0.03196686771371235
2364,0.017793090101451838
2365,0.0013299938896065588
2366,0.0003072689761028317
2367,-0.0031672925441645714
2368,0.002608900992707908
2369,-0.01516569371529778
2370,-0.005241607803725845
2371,-0.005394101928735038
2372,-0.006449579835790026
2373,-0.02218935191931031
2374,-0.004397941851039575
2375,-0.010438295222175497
2376,0.013186052844808976
2377,0.0076934423260160605
2378,0.009493700883120782
2379,-0.00233608528441882
2380,-0.013667208481158117
2381,-0.017822322392335894
2382,-0.014142064141843363
2383,0.03089110536030052
2384,0.010211694743436188
2385,0.006173504279134124
2386,-0.02519803319947893
2387,-0.0038205549579209304
2388,0.02598125307500505
2389,0.022965084239246154
2390,0.02222016357025803
2391,0.008521872427290283
2392,0.004928246260934252
2393,-0.009321842424494143
2394,-0.015365738533415219
2395,-0.009094127051047838
2396,-0.0027833874001788536
2397,-0.01045167728532464
2398,-0.013903754954600264
2399,-0.010481254327565692
2400,-0.0050612773143370576
2401,0.009465967783565824
2402,-0.0004922273652267859
2403,0.015338768922007575
2404,0.01914858013152611
2405,0.002625691885272105
2406,-0.0056500661721512494
2407,-0.0033238423878164595
2408,-0.00747690347439537
2409,-0.0189132473634205
2410,-0.001060253351387248
2411,0.012390246920875444
2412,0.005324901058413151
2413,0.006942317136753227
2414,0.007492496856603792
2415,-0.004349275948208562
2416,-0.003451747724527443
2417,-0.011036286864234975
2418,-0.022865957841630116
2419,-0.01711938942233464
2420,0.04881033662322584
2421,0.038717332723659306
2422,0.0037628089829310394
2423,-0.018074462037117225
2424,-0.023495012423700216
2425,-0.022779945090771025
2426,-0.018434339899001312
2427,0.00013909219679944344
2428,0.008990145839124074
2429,0.026132169145393135
2430,0.001090785942316824
2431,-0.020869708859153454
2432,-0.002323840276984136
2433,0.014398196842942822
2434,0.0014816315274356236
2435,0.004622604756248183
2436,0.003411399820034612
2437,0.005749837657189411
2438,0.0034382446819457716
2439,0.005036556503874876
2440,0.00461890285113126
2441,-0.0012360809088484371
2442,-0.004700533786151324
2443,-0.01494582208765282
2444,-0.005343687290777945
2445,0.012403156218632704
2446,0.009107687154139944
2447,-0.004417121866572744
2448,-0.018371227414832263
2449,-0.01005193089742887
2450,-0.011938410549104564
2451,0.002917683390585398
2452,0.02437591337158885
2453,0.019863157287964995
2454,-0.012610719384518876
2455,-0.00943438769899623
2456,-0.013038175352715644
2457,0.007365028717038075
2458,0.019846355239994392
2459,0.007277971793795233
2460,0.014178106640814852
2461,-0.004122496293922368
2462,-0.015277041589765164
2463,-0.010244885203209653
2464,0.011465066454926507
2465,-0.013370484340220923
2466,-0.003941339669693161
2467,-0.014033571429244178
2468,-0.003423146299234514
2469,0.004261487957295444
2470,-0.0009932191422316848
2471,0.0017329933661867133
2472,0.0006671376458969747
2473,-0.0014772633393504951
2474,0.004026113637369138
2475,-0.0001285480341420217
2476,-0.005971093876934572
2477,0.006339631588804974
2478,0.012270516326304066
2479,0.012116776995560538
2480,0.006922947602726907
2481,0.02587718626648914
2482,0.005287997221787577
2483,0.00886005264206264
2484,-0.0040783536131976115
2485,-0.03520933907988223
2486,-0.01927285175458531
2487,-0.016128035352626094
2488,-0.041105344471433714
2489,-0.016643274989827518
2490,0.033085927739009924
2491,0.027562420900349296
2492,-0.012181380492074834
2493,-0.0042262156430867
2494,0.010517080508733742
2495,0.013845379084347582
2496,0.016746193961980023
2497,0.003729762707267663
2498,0.008113969958633019
2499,0.0023225540259263254
2500,-0.013432967203311616
2501,-0.0089691457137966
2502,0.010239016312242187
2503,0.0055659896204666055
2504,-0.0035449111408294397
2505,-0.005948916949899095
2506,-0.002586600778331798
2507,-0.0017893744345716155
2508,-0.0020307294367840813
2509,-0.0018298531369053189
2510,0.002898462278048102
2511,-0.0019478146429621175
2512,0.00013244982704499388
2513,-0.021460059440936912
2514,-0.017443187755815312
2515,0.012759707245498643
2516,0.017975644992829335
2517,0.0033175382439005006
2518,-0.016645042991748155
2519,0.01389295024304757
2520,0.039852664494970796
2521,0.017020093797976466
2522,-0.03049094069302287
2523,-0.02357335211193582
2524,-0.010178398963576698
2525,0.0005093016731687692
2526,0.002873874123251333
2527,-0.008450409135412494
2528,0.002985538951950745
2529,0.019957232146580472
2530,0.01190151131343985
2531,-0.010891728745745875
2532,-0.01553893679703015
2533,-0.013247113452277087
2534,0.0015561802369783388
2535,0.007708769394732222
2536,-0.0022241753708797402
2537,0.005967119523746839
2538,0.005557224676405953
2539,0.0037683086799790676
2540,0.008516448838899335
2541,0.014791870360994976
2542,0.0006544970136854785
2543,0.0037271540828415265
2544,-0.0033179530946709423
2545,-0.02720738578465212
2546,-0.00922412846148768
2547,-0.005684261005325058
2548,0.01580981666478291
2549,0.010941401577500053
2550,0.014880321419176282
2551,0.002914395915132114
2552,-0.017604932504612522
2553,-0.013192648842020163
2554,-0.011564671401980926
2555,-0.018121776842410037
2556,-0.029669937928534312
2557,0.02552104108695378
2558,0.05410975723350524
2559,0.02369071458881012
2560,-0.013947682231659844
2561,-0.02321090707709414
2562,0.009153127241550683
2563,-0.005358437937933112
2564,-0.013323648015004526
2565,-0.005420297868328932
2566,-0.0016021241477652774
2567,0.015449570578177403
2568,0.0007698770510579274
2569,-0.0017479545942731649
2570,-0.006337674394171934
2571,0.012933538403668912
2572,0.014755626967784216
2573,-0.015140626371907034
2574,-0.014024580241724954
2575,0.015411400462734474
2576,-0.004882509173106363
2577,-0.017538670772230338
2578,0.004810036008116933
2579,-0.0019276710745058006
2580,0.019399977971090426
2581,0.004666958824072075
2582,-0.008799202801489688
2583,-0.004971917007493503
2584,-0.0026700583913183886
2585,-0.0021157007896851253
2586,-0.008151514462743861
2587,-0.008397392078571394
2588,0.013664824724205096
2589,0.01363221290471898
2590,-0.010690397272983545
2591,-0.014253325324629458
2592,-0.0030981752037468353
2593,0.01087166315460785
2594,0.006782172568147801
2595,0.0031181357457520115
2596,-0.004777610742129578
2597,0.010850137617322063
2598,0.02098210611138617
2599,0.0018163131841685796
2600,-0.012701022310497688
2601,0.007356415507678117
2602,0.0035207205449974558
2603,0.0027832054575137647
2604,-0.00530872590019427
2605,-0.0025125292899457283
2606,0.002290598933223801
2607,-0.019149821602447152
2608,-0.0178267270387938
2609,-0.006986674369684082
2610,-0.006415858945529264
2611,-0.008631300452051165
2612,0.016883186087897958
2613,0.022176060306398824
2614,0.003439352007268446
2615,8.54474874494443e-05
2616,-0.0005296009960403473
2617,-0.006158682734052768
2618,-0.004045592442662971
2619,-0.001185107916385323
2620,-0.011538575469129472
2621,0.015471475337224738
2622,0.02162188046604767
2623,-0.010584691060936829
2624,0.0017540351555380123
2625,-0.014150830535606451
2626,0.003472458824502773
2627,-0.006747332217609379
2628,-0.009802149271627576
2629,0.010436540283567186
2630,0.03758976517254499
2631,0.00038445990422157064
2632,-0.029077417075858487
2633,-0.011894150056742077
2634,-0.008928840437146094
2635,0.004398089333492937
2636,0.003687287429036789
2637,0.004779041077972619
2638,-0.015513543929941637
2639,-0.0006044087275052772
2640,0.0008260327382939112
2641,0.016854794545621506
2642,0.014220174996312262
2643,-0.00967105533039285
2644,-0.022542189631973474
2645,0.006316698068276517
2646,0.005697221729222707
2647,0.009629242312798264
2648,0.009393913912895574
2649,-0.0021654393375724074
2650,0.007977203015066683
2651,0.00311698993068028
2652,-0.005662161191820994
2653,0.005359192478410408
2654,0.00828682972107049
2655,0.003858693980650521
2656,0.015065185665097437
2657,-0.001760480492358989
2658,-0.01178418712076451
2659,-0.010575109692333613
2660,-0.024845200308939903
2661,-0.029892437584623517
2662,-0.013460481474987858
2663,-0.011033282156964645
2664,0.006355783389660755
2665,0.028955329600083863
2666,0.03086819605771749
2667,0.02778691340623895
2668,0.0005133586292902738
2669,-0.02399877789171822
2670,-0.01609927142660381
2671,-0.02590013710486051
2672,5.180676359084653e-05
2673,0.013269177527894596
2674,0.008478841714084672
2675,0.000752385894532942
2676,0.011633367342727253
2677,0.018671070135317165
2678,0.007056569065983275
2679,-0.01639485258766547
2680,-0.021699124213987484
2681,-0.01277448923291544
2682,-0.013491207322935928
2683,0.0032992024366985014
2684,0.021526164594211385
2685,0.024514433633627007
2686,-0.0026877601110150556
2687,-0.012936027847382552
2688,-0.005359651337831405
2689,0.005154021589557798
2690,0.022168111732355958
2691,0.01980591815742583
2692,-0.006149948595111782
2693,-0.0005726065105979754
2694,-0.007734775887271398
2695,-0.006436874812736684
2696,-0.0162375599896145
2697,-0.018892301558349832
2698,-0.007405858467551648
2699,-0.0015397442152265683
2700,0.009053055264960502
2701,-0.006857639002984001
2702,-0.03459763774675894
2703,-0.021992411052368318
2704,0.066514068700853
2705,0.051547789172219874
2706,-0.017007839040576574
2707,0.0014837669686886728
2708,-0.00831375441096782
2709,-0.005671620621929522
2710,-0.013422621921051958
2711,0.003274497316088621
2712,-0.004761730204190604
2713,-0.009023822062619704
2714,0.012717705644814871
2715,0.005288438819187504
2716,0.02052785678597583
2717,-0.008052418297302952
2718,-0.009978602221959615
2719,-0.0007724431611560402
2720,-0.010002576598300505
2721,-0.01464558243988916
2722,-0.017908661014537006
2723,-0.01492821729696244
2724,0.0053655603017563926
2725,0.016524057760817265
2726,0.014932068000402152
2727,0.01304655703012088
2728,0.032504872236933685
2729,0.016018603622938967
2730,0.00039919461547078747
2731,-0.002757959446169317
2732,-0.024276363606126155
2733,-0.010253508752655321
2734,0.0037542553361395864
2735,-0.00044614418891402146
2736,0.002350049743459897
2737,-0.005005651073743346
2738,0.0032099428028095835
2739,-0.015599713039631015
2740,-0.001050473338458188
2741,0.00021457583617622011
2742,-0.01733208092454274
2743,0.0072430598013331965
2744,0.006126894710007441
2745,0.0018852383273160259
2746,-0.016894659399837943
2747,-0.005750815349127985
2748,-0.001817397118062761
2749,0.007287072506282676
2750,-0.009813241373151968
2751,0.00029889821724817314
2752,0.03801949397737225
2753,0.03163225824857498
2754,0.009386011500934415
2755,-0.0034213309407534866
2756,-0.02545835071232709
2757,-0.024924178948714532
2758,-0.04699291964696182
2759,0.009560041107767588
2760,0.059282536948656345
2761,0.00032757411203294473
2762,-0.0040103435986731375
2763,-0.0107716747723401
2764,-0.02176643945648108
2765,0.005071687163798145
2766,0.022053388964735528
2767,-0.00405704159120882
2768,0.0042476555080214065
2769,-0.007216538754908275
2770,0.004027117661049475
2771,0.0014005331919806187
2772,-0.0019423304783560014
2773,0.003491888118381875
2774,-0.011631123202332165
2775,0.0003581241739227135
2776,-0.007428415621751588
2777,-0.009696708680882665
2778,0.0036899267926362254
2779,0.01156415068047905
2780,0.009649451293391339
2781,-0.0027767211828498978
2782,-0.004047661926138667
2783,0.005041872245158679
2784,0.005126202435683083
2785,0.0007791260947098994
2786,-0.00910314836608245
2787,0.00834760144409934
2788,0.018254839508074397
2789,-0.009267109620607446
2790,0.004192124993314922
2791,0.017199524246089903
2792,-0.0014990198303805155
2793,-0.01140167692005951
2794,-0.034380493207064516
2795,-0.023115410140929393
2796,-0.0091935971876109
2797,0.017423176218092824
2798,0.014241184387764911
2799,0.006022695447798556
2800,0.008120311791583179
2801,-0.016112546326127807
2802,-0.010025052150311716
2803,0.026231299321240728
2804,0.03612246875657119
2805,0.004924788560321028
2806,-0.012625833237634068
2807,-0.020346831197049574
2808,-0.006144613647456157
2809,-0.009368342309037379
2810,-0.015579747800179143
2811,-0.03223385147104512
2812,-0.027853354954662377
2813,-0.005430160637182088
2814,0.021032460219991472
2815,0.047756137585540114
2816,0.027148136137089784
2817,0.02644224113921501
2818,0.013959933089410091
2819,0.01063079831670272
2820,0.010926197522429949
2821,-0.014124829750205292
2822,-0.019190179038303348
2823,-0.02524411183451887
2824,-0.020956223236429327
2825,-0.023373165168379458
2826,-0.012749778633943267
2827,0.02017644304156752
2828,0.011631208189212549
2829,0.005431221651391461
2830,0.004255819067038702
2831,-0.006852764980046482
2832,-0.0013202025409093428
2833,-0.01101069146429881
2834,0.0037802262061723997
2835,0.020171758736678827
2836,0.028018387963310347
2837,0.009428000293336807
2838,-0.0017312962799851768
2839,-0.008047576978725738
2840,-0.03577849246865647
2841,0.0026483363400635466
2842,-0.004280638805868046
2843,-0.009540377376503362
2844,0.01047275028611211
2845,0.01625820885898122
2846,-0.0013962107653822185
2847,-0.027369909941091067
2848,-0.021646216047116914
2849,-0.012577523568773575
2850,-0.004272815027587865
2851,0.0019348133524911791
2852,-0.0007429941808760644
2853,0.009926942642841819
2854,0.030964309333396264
2855,0.019529208818890306
2856,-0.003923935765423429
2857,0.04659012837639243
2858,0.06805888090234444
2859,-0.01577025593828275
2860,-0.017401172027314084
2861,-0.04329681039918091
2862,-0.03914403237264636
2863,-0.018323302129779354
2864,0.009624049137958921
2865,0.008329819555106092
2866,-0.006055349084318446
2867,-0.010139321193174972
2868,-0.009558408900560134
2869,0.010672255509466171
2870,0.0024821178836436446
2871,0.005556535315828325
2872,-0.014417464033966527
2873,-0.007154307899528239
2874,-0.00769501311836262
2875,0.03098335969498626
2876,0.021418752207426985
2877,-0.000304704766749906
2878,-0.027028283600357535
2879,-0.008136409438372185
2880,0.01779816573271024
2881,0.002689424100165507
2882,-0.008305891605863064
2883,-0.004593951191552894
2884,0.010453731900781766
2885,0.01376495436864191
2886,0.007724683541885669
2887,0.0016880088776571956
2888,0.009650169455028806
2889,-0.001268959542731838
2890,-0.024735288828533864
2891,-0.027511823378363953
2892,0.011950272746288348
2893,-0.0014775056987523984
2894,-0.021930028776443414
2895,-0.010409729899479615
2896,0.009594079522948062
2897,0.026394820529184675
2898,0.034623742835303256
2899,0.008290794197934246
2900,0.011470033949133752
2901,-0.004352932014958311
2902,-0.008965681467040847
2903,0.012732113896326998
2904,-0.0063499887449136915
2905,-0.013439713458118518
2906,-0.02571088048458622
2907,-0.022584332902671776
2908,-0.007179426935138069
2909,-0.007596600451512855
2910,0.0054136980692247845
2911,0.01207982154699553
2912,0.0009161343670628617
2913,-0.010916504745282846
2914,-0.010611006886453295
2915,0.006168385328997656
2916,0.018981592419390955
2917,0.014454748692298614
2918,-0.003906791865682905
2919,0.00833163343254275
2920,0.0037003449140676024
2921,-0.00100105485936813
2922,0.029179166705446513
2923,0.003351441780256137
2924,-0.011578038345756998
2925,-0.004843347674319353
2926,-0.020544288733431688
2927,-0.024786114243407136
2928,-0.015044757852499794
2929,-5.263600089067816e-05
2930,-0.005403028103211201
2931,0.010546231297095168
2932,0.009400888261119397
2933,0.024711583977471023
2934,0.018519408022885448
2935,0.0015570349292666052
2936,0.01149444024916526
2937,0.007080120978445577
2938,0.004886452495337635
2939,0.0029553341861956657
2940,-0.00024682748140433634
2941,-0.02066498182835634
2942,-0.013209026769402466
2943,-0.0015865831079795118
2944,-0.005167683005205267
2945,-0.010553964203109233
2946,-0.013290810236695323
2947,-0.014412911992796349
2948,-0.004979814682105892
2949,0.004512127612780463
2950,-0.00031611143354463335
2951,0.004485381484661759
2952,0.01142422797091289
2953,0.010002390409491581
2954,0.008158740711754165
2955,-0.004630691375593575
2956,-0.007333693481481746
2957,-0.0008296179912282257
2958,-0.011036857388502923
2959,-0.006680469077799572
2960,0.003690938658891186
2961,0.01388566104458297
2962,0.020536973417910942
2963,0.006817939424755586
2964,0.007180389900857083
2965,0.006628019395175202
2966,-0.0013212442884876158
2967,-0.012568885189562272
2968,-0.01782162572722747
2969,0.003681722348931166
2970,0.012000509439134326
2971,0.004506587153803865
2972,-0.003016981500225534
2973,0.002053215647614341
2974,-0.005676131459712868
2975,-0.013035533236062106
2976,0.005935506091519044
2977,-0.01656897283463794
2978,-0.022148554829919103
2979,-0.001772708672670112
2980,-0.0093249369460486
2981,0.017504828194447677
2982,0.029103422862440432
2983,0.03021037542899331
2984,0.027308411284619083
2985,-0.00653632227023222
2986,-0.006887765676993448
2987,-0.018295891568936344
2988,-0.03982971562188101
2989,-0.03605791388375203
2990,-0.012913920450335287
2991,0.006712720687425433
2992,-0.009305257949749159
2993,-0.005426819846080143
2994,0.07171824972996092
2995,0.022964529428349447
2996,-0.02845548200885261
2997,0.022391777817878763
2998,0.002826512765752121
2999,0.0010589349315615147
3000,-0.0022435079271807545
3001,0.008088814938514812
3002,0.003507793319450294
3003,-0.00012483520948273585
3004,0.0030084347336431123
3005,-0.02289261270842103
3006,-0.018890641779105884
3007,-0.004157847979276346
3008,-0.002264807019078191
3009,0.011659531442618632
3010,0.0073967782550545015
3011,-0.014718007987636016
3012,-0.00984219350794215
3013,0.0008042027738851768
3014,-0.0033000099012338267
3015,-0.009363641470832823
3016,-0.0003573894793983817
3017,0.005790111893730731
3018,0.020994313585989594
3019,0.015360762747067767
3020,0.0022302146202682034
3021,0.004451964380197443
3022,-0.004989125699247403
3023,0.002914473500281532
3024,-0.010067373323862702
3025,-0.007100148710237852
3026,0.014324498964307127
3027,-0.0013894839500615814
3028,-0.01017121281262442
3029,-0.0018132231464752426
3030,-0.006731030209593543
3031,-0.017155699486565847
3032,-0.0066532834553063025
3033,-0.020542792745375606
3034,-0.005725923118136689
3035,0.036256493330372286
3036,0.03097797010675832
3037,0.02822537425692726
3038,0.017796090923261898
3039,-0.010612231085738813
3040,-0.010803077662828344
3041,-0.035660905424473054
3042,0.027533844245150617
3043,0.03787022488884863
3044,-0.020320176276711014
3045,-0.027344663585638238
3046,-0.039622936873290576
3047,-0.011828725744933433
3048,-0.001957159156657033
3049,-0.0008020629477575071
3050,0.014458260579122096
3051,0.013089567487655624
3052,0.005675881056900329
3053,0.00018935833806549111
3054,-0.010155870850680013
3055,-0.006896569367837294
3056,-0.0040338844522507245
3057,0.0003899557822106374
3058,-0.006704679153394018
3059,0.01162927031603656
3060,0.0064675095626585116
3061,0.0124723155738484
3062,0.020517123254000694
3063,0.011391412466495532
3064,-0.003618344283688726
3065,-0.004144676023481492
3066,0.001295738333596628
3067,-0.005270766354397452
3068,-0.021066355367034825
3069,-0.010426994814734108
3070,0.010489645376546196
3071,0.004855439119646242
3072,0.0010089226973769346
3073,-0.004188517038632083
3074,0.0013247485666707994
3075,-0.00807836171164665
3076,-0.013615235776712357
3077,-0.016096926896322042
3078,0.00987677569672255
3079,0.013394405281165245
3080,0.03151963400126137
3081,0.014485798720324771
3082,-0.018037312576687763
3083,-0.016311497938635573
3084,-0.008298377671041364
3085,-0.008098013676173946
3086,0.011225160722986714
3087,0.029766239507288204
3088,0.01124276451694332
3089,0.0018155503579434977
3090,-0.015037860848511038
3091,-0.0067031664519089955
3092,-0.0006823501392214653
3093,-0.008501483195883716
3094,-0.01808337418552969
3095,-0.008878716944420599
3096,-0.0048787962679414845
3097,-0.02286381491205767
3098,-0.0021042334797377812
3099,0.02223914033343311
3100,0.013539541577060289
3101,0.012979042830989603
3102,-0.0009091489491438003
3103,0.02244263990909901
3104,0.02447606147751733
3105,-0.0063164491331389305
3106,-0.013569078065423044
3107,-0.037745786209748444
3108,-0.0026702812815371565
3109,0.013688925711174688
3110,0.015984201902702423
3111,-0.009538568326336866
3112,-0.01696131700858345
3113,-0.0011390540453626932
3114,0.0009833391193184871
3115,0.009614514896721318
3116,0.013036080985088672
3117,0.007951148484632969
3118,-0.008596222018066858
3119,0.006808102619362368
3120,-0.002611172820712076
3121,0.00897428759869285
3122,-0.013416578724884078
3123,-0.02661854940111086
3124,-0.01148896358940267
3125,-0.018222539229825505
3126,-0.020441207580553088
3127,0.07321256310643554
3128,0.038215963835389964
3129,-0.013541057470284723
3130,0.010268145735951877
3131,-0.0068926698530976365
3132,-0.0032206543355636948
3133,-0.04728393022831244
3134,-0.019180707489524884
3135,0.00989356735222665
3136,0.007930310886676681
3137,0.0059099209621535686
3138,0.01996925073430821
3139,0.015155136170212954
3140,0.0010905348205300681
3141,-0.022696233083401882
3142,-0.004033537092785526
3143,-0.005283225146760636
3144,-0.0019956963987202876
3145,0.004517179906779668
3146,0.0163462539845278
3147,-0.003558718130387946
3148,-0.0023424184048232303
3149,0.007718998370370872
3150,-0.0013242347832036674
3151,0.009744193593003846
3152,-0.021808230119320364
3153,-0.004888287010579834
3154,-0.016109350595695026
3155,0.0007681146540019779
3156,0.003010534751673944
3157,0.020601703956203567
3158,0.00831104781410595
3159,0.0034945359057730494
3160,0.007703952617994789
3161,-0.017276414422187917
3162,-0.02361460669257601
3163,-0.015446298962886646
3164,0.008896907713459612
3165,0.024792565190742737
3166,0.025392826391131634
3167,0.013424035760704289
3168,-0.015967360505609426
3169,-0.02410189273909606
3170,-0.017328703279426302
3171,0.0003984715922397287
3172,0.024640241088756735
3173,0.009443568476683747
3174,-0.004570318123788148
3175,-0.013593510971016876
3176,-0.0007990241075031164
3177,-0.002473452207554412
3178,0.005408512164272601
3179,-0.014722551193088256
3180,-0.017901121889746723
3181,0.01967280221683735
3182,0.0324311641518257
3183,0.007443218567068996
3184,-0.002567813608886315
3185,-0.0009551147346168781
3186,0.007359308631941444
3187,-0.006043847843488571
3188,-0.020656770339380744
3189,-0.016912253068472494
3190,-0.01182246338558413
3191,0.010200217579253563
3192,0.015531486469511809
3193,0.006711888896850099
3194,-0.0075530042458408315
3195,-0.0038383088336987345
3196,-0.021046033176221772
3197,-0.00883343264911302
3198,0.013024891969677292
3199,0.013522837723800809
3200,0.015185728431606024
3201,-0.002994400733245254
3202,-0.0033909551166834504
3203,0.0016428974401249598
3204,0.0035866843490513986
3205,-0.007818596933948584
3206,0.0024575188278490295
3207,0.0003390369806097488
3208,0.018649149330018083
3209,0.007454694558057433
3210,-0.0005015901299667822
3211,-0.003170788805328742
3212,-0.01677395424220792
3213,0.0045272238795590405
3214,-0.02043106980342257
3215,0.006068187413378254
3216,0.007752793014753422
3217,-0.004646911824326052
3218,-0.019362523688057524
3219,0.01052027857899145
3220,0.01710769223499994
3221,-0.006328951770416215
3222,-0.0006481260677160651
3223,-0.0061572978272920655
3224,0.004597491504141252
3225,0.0056251146249691785
3226,-0.012025595562319143
3227,0.0045221196088415854
3228,8.985119954583315e-05
3229,-0.0064208968362783735
3230,0.009193360043021195
3231,-0.002536463752365361
3232,0.003252371758202261
3233,-0.004669532261747198
3234,-0.0019696058318521854
3235,0.002071867064161656
3236,0.00239545224618435
3237,-0.017396756344833727
3238,-0.0009068776037180048
3239,0.02133227100257844
3240,0.011113378898879912
3241,-0.004657586821312708
3242,-0.012845041143231914
3243,-0.028035529798959506
3244,0.009016124333519676
3245,0.040720545746222414
3246,-0.008321041246166866
3247,-0.021181874480731958
3248,-0.0006817765723488682
3249,-0.00041880662278617753
3250,0.033566433860104564
3251,0.04264486184671637
3252,0.004267051222696447
3253,-0.0044828367399886646
3254,-0.010318526739233877
3255,-0.022480534538527906
3256,-0.02205750483467077
3257,-0.013343193261822265
3258,-0.015310246201211065
3259,0.0025342649249318924
3260,-0.00765388123506228
3261,-0.018824965765730516
3262,-0.013575427548748296
3263,-0.03039316314123839
3264,0.009225384039279711
3265,0.06788106908737934
3266,0.015843925548366472
3267,0.007216604065646155
3268,0.016566220932507245
3269,-0.0021274044670551227
3270,-0.001282594581342049
3271,-0.010594450720664146
3272,-0.006895252762589302
3273,-0.012627718546683691
3274,0.007747800132912654
3275,0.005564392445496878
3276,0.0035115583613871525
3277,-0.008862239679839309
3278,0.012499946436062954
3279,0.002769025914827347
3280,-0.0044116119791874076
3281,0.001994202384579898
3282,-0.012507441328916704
3283,0.024062680003504946
3284,0.014449918105036973
3285,-0.0053418876895893405
3286,-0.023664483159164515
3287,-0.025806842867038868
3288,-0.020723668655838752
3289,-0.01899752727787186
3290,-0.0032448915308572693
3291,0.0038903597103838623
3292,0.006042717375432454
3293,0.030446002631058643
3294,0.019420652028826455
3295,0.01248978488255539
3296,0.002937862799108664
3297,-0.009247140746596827
3298,-0.00649471539744508
3299,-0.008759699971154214
3300,0.003988675801302832
3301,0.014654533700769244
3302,0.029012592390096632
3303,0.005115582713812452
3304,-0.02030255273120371
3305,-0.009735481767110454
3306,-0.008991731014213843
3307,-0.009185477886204945
3308,0.011424119214763129
3309,0.004450543945966223
3310,-0.015131195309153325
3311,-0.03274182880415595
3312,-0.020037173472091756
3313,0.02129687861660975
3314,0.025777831914610954
3315,-0.007464707377170766
3316,-0.0037734388820068396
3317,0.015144428652433484
3318,0.0015555533007422396
3319,0.009872246275313037
3320,0.02804930984030072
3321,0.0008423540188203364
3322,-0.002520393832428505
3323,-0.01638096226028273
3324,-0.014261863451061613
3325,-0.0032477173465612907
3326,-0.018228752489179118
3327,-0.004198280815558127
3328,-0.0009808261719246921
3329,0.0026381186228244206
3330,-0.005720094430909978
3331,-0.002392988987610884
3332,0.00951008670735619
3333,0.024088025379446782
3334,0.011313072949694048
3335,-0.01021045052874955
3336,-0.030205970103034552
3337,-0.006468847211907099
3338,0.05348868601905498
3339,0.03339211188246804
3340,-0.012534336202671841
3341,-0.02015505600633994
3342,-0.00024469034718133846
3343,-0.00801078902358305
3344,-0.02184187721243366
3345,-0.00824606300027223
3346,-0.005863759842153366
3347,0.003988587032115333
3348,-0.004035545323502553
3349,-0.005977690086446094
3350,-0.007777941894869994
3351,0.006814917361018925
3352,0.023017642672210938
3353,-0.001007940212714057
3354,0.016594669817664495
3355,0.012861097751725314
3356,-0.01298351425317543
3357,0.007389180239812395
3358,0.010159042418414494
3359,0.0058243528861826425
3360,0.005223482754874763
3361,-0.02144003624156817
3362,-0.03249700854042373
3363,-0.02612906610169851
3364,0.0009916890944276727
3365,0.01115423710999772
3366,0.00022006283215074592
3367,-0.007565687238931326
3368,-0.007182733285102038
3369,0.004197464089975598
3370,0.015423095141500387
3371,0.008707064384381964
3372,0.001602706129867005
3373,0.017130555406057166
3374,0.022879223678132343
3375,-0.0035007826798519846
3376,-0.021367002557500965
3377,0.05803446398202973
3378,0.0381268901585221
3379,-0.039421521843075485
3380,-0.036162705244723765
3381,-0.029874435793174836
3382,-0.0008852284881649686
3383,0.0005585453358183789
3384,0.025843348039738527
3385,0.017211008013873624
3386,-0.019154628620929395
3387,-0.02926151976563029
3388,-0.01501592048498531
3389,0.0008184139587685754
3390,-0.011292877343322478
3391,-0.003883637958862537
3392,-0.0018874665060307771
3393,0.006335696462823125
3394,0.012244283171294926
3395,0.0011490540209076368
3396,0.0022752350043977066
3397,0.01282573213162742
3398,0.010016762183819973
3399,0.0091343362498914
3400,-0.00581182144166334
3401,-0.00015534979992261506
3402,0.03453375439740558
3403,-0.0011600793656802826
3404,-0.015164465622310165
3405,-0.014920835394983366
3406,0.0016866046102938185
3407,0.017978717752760068
3408,-0.024215892324991335
3409,-0.016595563713398005
3410,-0.019255476924567874
3411,0.0038374683981230954
3412,0.028455961865012355
3413,0.0058787007622979745
3414,-0.0004581949482917319
3415,-0.006381101951794998
3416,-0.00030886867082425586
3417,-0.0043653593904812125
3418,-0.006735495941974869
3419,-0.0017770596161872099
3420,0.000473242412266631
3421,0.017631726412542646
3422,0.015880292444327163
3423,0.0002991771462882969
3424,-0.0169102575857946
3425,-0.008661569294226299
3426,-0.002316792847615632
3427,-0.0007741195493347619
3428,0.005092760766468087
3429,0.01380521281449879
3430,0.011138922894643027
3431,0.0017230648661344557
3432,-0.010075763069898845
3433,-0.003843996407231077
3434,0.0104405674748546
3435,-0.0010180114430184532
3436,-0.002097058539424882
3437,0.004780286962219028
3438,-0.004274978444545009
3439,-0.020428193349466276
3440,-0.016413797440288556
3441,-0.03440703234163867
3442,0.007421978462187254
3443,0.01822605350843978
3444,0.0065788764334011
3445,0.02101300853466051
3446,-0.004482571710439631
3447,0.008381474204996842
3448,0.03548636129594173
3449,0.004227448210382828
3450,-0.04344040354396385
3451,-0.02532421737041566
3452,-0.009254684717443812
3453,-0.011003773547635256
3454,-0.0014052537757443632
3455,0.020912671264519088
3456,0.015075632837388412
3457,0.005395743957665873
3458,0.008072933914615535
3459,-0.004938817993157096
3460,0.010801435715236073
3461,0.008432002655560914
3462,0.006972499090918007
3463,0.013042796212873966
3464,-0.010663537162861765
3465,3.806272341719957e-05
3466,-0.01055126256895662
3467,7.67424055278694e-05
3468,0.008885185438983714
3469,-0.026081886346802894
3470,0.024868122097408612
3471,0.004112918773693819
3472,-0.018526898274285
3473,-0.00436046193640445
3474,-0.005221290229602529
3475,0.018547418537060534
3476,-0.0022652553149110338
3477,-0.0031214423433315215
3478,-0.013291535145726696
3479,-0.0058572206729079895
3480,-0.0158795693798388
3481,-0.01875072662566427
3482,-0.003427442085141029
3483,0.005368890352566437
3484,0.01207821545142179
3485,0.01563384709172495
3486,0.014989465122389871
3487,-0.004902286135141553
3488,0.0016867223030635325
3489,-5.843907387705939e-05
3490,0.0016104626214096095
3491,-0.0087471778913105
3492,-0.00013496133255247802
3493,0.024416664887680215
3494,0.005710434332870203
3495,-0.011372145941930758
3496,-0.008657031202283151
3497,-0.0037023109199861683
3498,0.003560545653256579
3499,-0.0022256783736562718
3500,-0.008875327819990233
3501,0.001999885429415988
3502,0.019922947251578768
3503,-0.0004108373492958308
3504,-0.0010645224579484708
3505,-0.011791246171534386
3506,-0.010423684189563201
3507,0.005844994164968113
3508,-0.007331774867920441
3509,0.007100414186310285
3510,0.004188136995487398
3511,0.010362921855064447
3512,0.012841650462557332
3513,0.0022316334990369327
3514,-0.007735299271406204
3515,-0.023647696543103197
3516,0.003053967527139578
3517,0.01861976373875096
3518,0.0005492131276728196
3519,-0.022195537286608665
3520,-0.0031548087827736656
3521,0.0026113574240945008
3522,-0.01882546751648994
3523,0.004790564214339729
3524,0.003780538601887635
3525,-0.01094429303755681
3526,4.0115892513948453e-05
3527,0.02650880714957672
3528,0.005180270236283221
3529,-0.022427454388332144
3530,-0.003428802854877077
3531,0.07192028140922123
3532,0.011200576784835282
3533,-0.024479137178897603
3534,-0.0018046744977549024
3535,-0.005324525428304266
3536,0.00011391805561586626
3537,-0.025419710213752278
3538,-0.0152385020030109
3539,-0.03196692754232897
3540,-0.0067617344684930344
3541,-0.006381974909348411
3542,0.0254933212547752
3543,0.023872673839957705
3544,0.023660282453039853
3545,0.007219337362539908
3546,-0.012699502934311007
3547,-0.00012608309584335835
3548,-0.012607373003062323
3549,-0.009644021740432001
3550,0.01241817818202464
3551,0.008656310403789171
3552,-0.010210569753105168
3553,0.008506716458947801
3554,-0.0043134536393729704
3555,0.006823595513613607
3556,-0.0011072336093797455
3557,-0.006604880539086793
3558,-0.0053782544586317375
3559,-0.004926886791598089
3560,-0.01061316903962094
3561,-0.0002125311170331854
3562,0.013490899595356685
3563,0.007537410836743827
3564,0.013362425943722148
3565,0.013650553105717712
3566,0.005253514991353162
3567,-0.008678854317676156
3568,-0.019091560721110647
3569,-0.02998608585559787
3570,0.0010725964398981252
3571,0.017913436488909314
3572,0.0014878592503753925
3573,0.0023373877076719226
3574,-0.002494959779257057
3575,0.007966086115766702
3576,-0.01107600011673889
3577,-0.0034947651994004653
3578,0.007633638995479392
3579,-0.007264309584267575
3580,-0.012771017146915425
3581,-0.034959842623732806
3582,-0.047645092149100225
3583,0.08665257638091114
3584,0.11985771620128549
3585,0.002209943193008943
3586,-0.018890449720785487
3587,-0.05491915532076004
3588,-0.019641416551818617
3589,0.013626176150267278
3590,-0.024932534946135138
3591,-0.01311913230344858
3592,0.027129478436787813
3593,-0.029118213117030795
3594,-0.03548116689802759
3595,0.0017165279954547237
3596,0.009011586985375545
3597,0.0042816906504386755
3598,0.013751811932994374
3599,0.009583566619210636
3600,5.5993868020994333e-05
3601,-0.010346539428323443
3602,-0.007279645124716875
3603,0.0036381068821819337
3604,0.0014700795933178055
3605,0.021591064247281366
3606,0.006566664422675216
3607,0.0021301174841463714
3608,-0.00243490258183093
3609,0.013080980137033807
3610,0.008257975239673499
3611,0.012794750904555575
3612,0.010929259767543569
3613,-0.006567942107362943
3614,-0.0074788979614446695
3615,-0.0036091752955837338
3616,-0.0048059325354860285
3617,-0.015595441511232794
3618,-0.013344431279295174
3619,-0.011332866417664468
3620,-0.005985961892473654
3621,0.01949076132793678
3622,-0.0030734258448582817
3623,0.0018511609877713804
3624,0.001989549516082578
3625,-0.0053007439306954444
3626,0.00923085081589604
3627,0.006788003245343207
3628,0.00587337559376478
3629,-0.009206850110861961
3630,-0.009330943568177732
3631,-0.02560489002369714
3632,-0.006473309732001149
3633,0.018359193778256736
3634,0.020754478788736895
3635,-0.0008377058693423232
3636,-0.0024280987754362934
3637,5.0668760526230774e-05
3638,-0.002241372492496151
3639,0.005058693843552411
3640,0.006538363176131747
3641,0.003655519855107539
3642,-0.013031446911345172
3643,0.005539295157366693
3644,0.0038378679421540722
3645,-0.011211265679081402
3646,-0.00995455910318449
3647,-0.00749515506270788
3648,-0.007684160571720319
3649,-0.012560517490175336
3650,-0.005922966196818407
3651,0.030433827555139552
3652,0.049407695923441325
3653,0.003916777457428754
3654,-0.021221565249803443
3655,-0.013163611174822624
3656,0.0003898881691743357
3657,-0.008917297797165274
3658,-0.022479488722470173
3659,0.02327345923694101
3660,0.022004603067148285
3661,-0.012552090551230664
3662,-0.0009484599244551041
3663,0.010826631167600288
3664,0.002131837337309576
3665,-0.02264100219442866
3666,-0.023620958064908347
3667,-0.0059130093756439815
3668,0.014933343244910482
3669,0.004031188545113624
3670,0.0040511948284041
3671,0.00011385149682214928
3672,-0.005921120280133413
3673,-0.002718731468832357
3674,0.0020531447783976395
3675,0.012306942156342251
3676,0.020244373857078928
3677,0.029353768471294353
3678,-0.0035769337417320716
3679,-0.002978555969342418
3680,0.0059828497924862434
3681,-0.015230579692244547
3682,-0.017110806625833724
3683,0.00674654706590333
3684,0.0018971588973203048
3685,-0.018694935581442515
3686,-0.010314179363809035
3687,0.004074294202215282
3688,-0.015429802690449879
3689,-0.024766371711490955
3690,-0.025603260627555198
3691,0.001513572569564605
3692,0.01917588232254855
3693,0.012804979296708237
3694,0.024546385621068503
3695,0.009055514827809351
3696,0.003274666012777823
3697,0.03756963384060441
3698,0.014361188789594227
3699,-0.03272222570232274
3700,0.015984268036534917
3701,0.008954804159652734
3702,-0.011347555277507589
3703,0.001353973679962419
3704,-0.007791109295537278
3705,-0.02977352432092633
3706,0.027739302513158714
3707,0.022191441550412944
3708,-0.044230438628281986
3709,-0.021579981855998177
3710,-0.008962408636833967
3711,0.004844243119846893
3712,-0.009077577824143021
3713,-0.004628433804480267
3714,-0.003961253215818644
3715,0.010111749898524916
3716,0.005948864647287683
3717,-0.004528896107745997
3718,0.004720965500588295
3719,0.007526923963035696
3720,0.0012160535829502713
3721,0.019107442984167434
3722,0.01872597055820155
3723,0.012839111131051205
3724,-0.003145388110246774
3725,-0.02128879757938178
3726,-0.01327476849749406
3727,-0.009060448545697389
3728,0.011085733033323412
3729,-0.0007823259517846914
3730,0.011859461013118047
3731,0.0005464227707252236
3732,0.005390868332277165
3733,0.0009035711637868371
3734,0.007348427473922741
3735,-0.004229268423587082
3736,-0.004630462341920741
3737,-0.005578915412363954
3738,-0.012290383121550385
3739,-0.006657558753884451
3740,-0.011589061566024031
3741,-0.009505600125444873
3742,-0.017272802301317246
3743,0.010481961291336614
3744,0.027079347503107674
3745,0.02070993520049168
3746,0.009169300079611507
3747,0.019923430094457933
3748,-0.01788021057111913
3749,-0.02516214842670604
3750,-0.007444335975147792
3751,0.0017453661166426408
3752,0.022324643257231196
3753,0.0011530510583840194
3754,-0.009841645843025089
3755,-0.002384427989288878
3756,0.0030371203372672015
3757,-0.013227255251402167
3758,-0.012721920308857111
3759,0.005308451215616718
3760,-0.005337252718254552
3761,-0.012892499083634606
3762,-0.03867901088499616
3763,0.0001737582922926549
3764,0.07765071292153936
3765,0.046539040491788836
3766,0.01382792733602754
3767,0.008337894425663852
3768,-0.019716609798668315
3769,-0.011083047342177533
3770,-0.02360554993415131
3771,-0.025265586333563725
3772,-0.009067285034404985
3773,-0.005893194719240581
3774,-0.0029178108536279997
3775,0.00010408456241262597
3776,0.005323326261823198
3777,-0.001651195274646031
3778,0.002344478664382043
3779,0.009260029395303926
3780,-0.002028584580561918
3781,-0.024317689173370217
3782,-0.0031100587179880602
3783,0.011529121729465438
3784,0.02250291295716086
3785,0.03206123863097543
3786,0.028606055923383684
3787,0.0031194294921741703
3788,-0.020484389409831563
3789,-0.034140344852639934
3790,-0.03187429859261135
3791,0.008873789082175482
3792,0.019721258211513232
3793,0.005317619805540972
3794,-0.007972285883110173
3795,-0.0071709681124385175
3796,-0.007964475938335363
3797,-0.00038166891877565445
3798,-0.0041705995776192915
3799,-0.003377978279009968
3800,0.005933054899199477
3801,0.004484172188174904
3802,0.005374611467575912
3803,-0.0034620075936401436
3804,0.013782454413555748
3805,-0.002736115456808996
3806,0.006474264215435161
3807,0.013895613272329754
3808,-0.004251992741387673
3809,-0.002340065501550392
3810,-0.030472883130596932
3811,0.03656668148623707
3812,0.026103869254456766
3813,-0.026491519201026638
3814,-0.023682887607835424
3815,-0.00781344013048674
3816,0.014085089639391873
3817,-0.010798800979390729
3818,0.010370212485522737
3819,0.0071216023503776985
3820,0.009913504306045566
3821,0.002687894119930809
3822,0.0027736812289294198
3823,-0.015747020156248348
3824,-0.038279700800681646
3825,-0.029554850703704148
3826,-0.009002813223017395
3827,0.016402542273677954
3828,0.025455526341585096
3829,0.010268533510450732
3830,0.009063040471758549
3831,0.015504434446547196
3832,0.005410199055768636
3833,0.006538079149406493
3834,0.004517787096286441
3835,-0.008084794468215627
3836,-0.016457527509677786
3837,0.02093157144857155
3838,0.00732177910641853
3839,0.007110300621551621
3840,-0.0007836030162670902
3841,-0.012606601170269283
3842,-0.015130670139872852
3843,-0.015002835429288817
3844,-0.02978393933211211
3845,-0.0028947010219140326
3846,0.03333326617009439
3847,0.017654080449056364
3848,-0.0033633137812277072
3849,-0.014343403279404077
3850,-0.009542937710204322
3851,-0.011015613934004229
3852,-0.0010106692794700119
3853,0.017062927561447658
3854,0.019968018526622992
3855,-0.005087873039951144
3856,-0.0011560438546186769
3857,0.005875553784426728
3858,0.0015540906715272688
3859,-0.01026997749486862
3860,-0.0008983825346216574
3861,0.012667279183205444
3862,-0.0011266412727275587
3863,-0.02090818938684554
3864,-0.0033554037331589535
3865,-0.003976701727488192
3866,0.004801421166851954
3867,-0.001685723599302318
3868,0.005824615369403657
3869,0.013388519404363596
3870,0.0019144809351460106
3871,-0.007972369852519753
3872,-0.01042443110969719
3873,9.059365799523114e-05
3874,0.009663501136298182
3875,0.025431066692495324
3876,0.010881830115312746
3877,0.007803945081963544
3878,-0.01977752906271269
3879,-0.020827497818325998
3880,-0.00511007373470007
3881,0.017256264074245277
3882,0.011598582650862967
3883,0.004071717474660843
3884,-0.0048559230726418386
3885,-0.02083857973574833
3886,-0.01059107424813
3887,-0.011052449281020484
3888,0.00193441549751957
3889,-0.009115363611943057
3890,-0.011743038679068436
3891,0.008425362017855554
3892,0.00789140098188788
3893,-0.009358515914418743
3894,-0.006709822413121852
3895,-0.007667906062653596
3896,-0.00014333594403322797
3897,0.035505120683425304
3898,0.03857171210796607
3899,0.03814166241756735
3900,-0.005096458135781566
3901,-0.026803377063597575
3902,-0.013712915185456243
3903,-0.0046619489002817285
3904,0.0033396981032058925
3905,0.000742303645154643
3906,-0.009730875446872388
3907,-0.014406047817932116
3908,-0.004412781026390229
3909,-0.014932492119357817
3910,-0.006849712975376631
3911,-0.002871893119320696
3912,-0.004195636492856758
3913,-0.0023466661921095824
3914,0.029829776894883534
3915,0.021035609237373923
3916,0.0037207551021857807
3917,0.0027961323057537667
3918,0.0017302286779587585
3919,-9.418638986832036e-05
3920,-0.004524170369188054
3921,-0.005828596239368509
3922,-0.015663091201066646
3923,-0.0021664745817865667
3924,-0.027018926490590445
3925,-0.04455405315770837
3926,0.02345266153428409
3927,0.05937337833317832
3928,0.053334274343349024
3929,0.024444837010381904
3930,-0.01827813069718912
3931,-0.014674838469578132
3932,-0.024551288259021323
3933,-0.010954538867665137
3934,-0.017013195995851774
3935,-0.0030905696414225987
3936,0.0005383320874140368
3937,-0.010865647946489473
3938,-0.02105838494630751
3939,-0.024020743789191567
3940,0.006075911225021392
3941,0.0049575502094561415
3942,0.0027835745977223096
3943,0.008314845535208618
3944,0.02390397322624782
3945,0.023239924858945042
3946,0.011219313124952947
3947,0.002034671073279759
3948,-0.000598787729985369
3949,0.007169525770771584
3950,0.0019565565926390072
3951,-0.003538538060867894
3952,-0.014713210232826531
3953,0.005807992361718755
3954,0.025694414401199867
3955,-0.016284969844035904
3956,-0.007550956391365455
3957,0.0035310965604573915
3958,0.016006732080309876
3959,-0.0031583735982786214
3960,-0.016328369437300302
3961,-0.026710450271582135
3962,-0.016695142741998088
3963,0.009807031453656566
3964,-0.00024545884407051015
3965,-0.003414610863457228
3966,-0.0070683579986098154
3967,-0.0013325469439326599
3968,0.0023699420567764896
3969,0.0179025259147527
3970,0.003184159649314391
3971,-0.011340673990608365
3972,-0.0018339066020856831
3973,0.019464875187293236
3974,0.018693821041253274
3975,-0.008477040782875842
3976,-0.01805616547086452
3977,0.0060660587002318665
3978,0.013220736033597524
3979,0.007834602828180907
3980,-0.005903861407630334
3981,-0.02319964471992038
3982,-0.020953593195046406
3983,-0.010059065871948922
3984,-0.01048210235979774
3985,-0.00748112258990901
3986,-0.0018849564994057322
3987,0.029610379920311358
3988,0.034814773059223945
3989,0.03547386444176811
3990,0.018231106649687148
3991,-0.006819023829238982
3992,-0.007454657626264691
3993,-0.014902221242785476
3994,0.005920549145969758
3995,-0.009036903024934343
3996,-0.007271769332651899
3997,-0.008973001536878217
3998,-0.006032152050461691
3999,-0.011882448920486966
4000,-0.019617139618577684
4001,-0.009542472659933906
4002,0.009079205695988203
4003,0.043453275048409984
4004,0.006613972690811056
4005,-0.0038134030641828174
4006,0.005849313348094694
4007,-0.009109653618178894
4008,-0.00665936068812175
4009,-0.014318851240348783
4010,-0.01099411864026374
4011,-0.011437112709296144
4012,-0.0016412162334328486
4013,-0.007658973570039342
4014,-0.011540920231465433
4015,-0.006876947976760368
4016,0.02039145646925551
4017,0.020805117553787236
4018,0.004314667590508546
4019,0.0051545577406239065
4020,0.02302094137950743
4021,0.028710677893530875
4022,-0.01469665994529891
4023,0.005196887956281462
4024,0.0007620284471195998
4025,-0.028532459779416687
4026,-0.023420600109375307
4027,0.0019172471212277834
4028,0.001353429325334922
4029,0.004204679880985943
4030,-0.004586286131926855
4031,0.0027769747310274467
4032,0.013743333837016956
4033,0.009057290734240721
4034,0.0018270532576000423
4035,-0.009643236685362896
4036,0.005590682997779422
4037,0.013245257421177133
4038,0.002398904212264395
4039,-0.018856546781560735
4040,-0.009175983712938105
4041,-0.00394085462087346
4042,-0.013595436736030659
4043,-0.013117751430147486
4044,0.007985755700496614
4045,0.010748728724541856
4046,0.004940448790980727
4047,-0.008287709839181479
4048,-0.007114667212150885
4049,-0.007983758910501836
4050,0.017990934182297625
4051,0.012686329311553968
4052,0.0012488662651888721
4053,0.003651502582488626
4054,-0.009162110342660517
4055,-0.024524215816502586
4056,0.04042473682447048
4057,0.06544034423861175
4058,0.00309536785194979
4059,-0.013867354044739159
4060,-0.0338953083865121
4061,0.0005826554407634479
4062,-0.036344506575231965
4063,-0.049593789533109944
4064,-0.028989395536511947
4065,0.007878076870982308
4066,0.027830747390469496
4067,0.025362652386245018
4068,0.005556293609105084
4069,0.014691568814376603
4070,0.01672382900239803
4071,-0.014425043977721784
4072,-0.02092388535479206
4073,-0.0191670856763867
4074,0.026470653239456184
4075,0.037171466726288155
4076,0.010181643259435255
4077,-0.011536857626596914
4078,-0.0019185239558811764
4079,-0.013050579883316336
4080,-0.007143771665045623
4081,-0.004587905460529646
4082,0.02455247571074714
4083,0.00021899132122021447
4084,-0.012102009419578402
4085,-0.01129015710587916
4086,-0.00947767379027609
4087,0.005683354714364009
4088,0.0034520418047893795
4089,0.0013912776027560827
4090,-0.00882681678960335
4091,0.004589213949710994
4092,-0.004618945457609892
4093,-0.009909132476229167
4094,-0.0028477186229269747
4095,0.007694484040144606
4096,-0.01528085639938699
4097,-0.00568119570179737
4098,0.05384208434300373
4099,0.0333994584487506
4100,-0.010370756830680752
4101,0.0017247084656580908
4102,-0.006134474730486147
4103,0.0006309996937937672
4104,-0.019585114231349995
4105,-0.013180904606050238
4106,-0.004246390883177255
4107,-0.011880440391416797
4108,-0.013425786685467506
4109,-0.0061271986379448085
4110,0.0007355177749016183
4111,-0.006901192401893542
4112,-0.002441040966337356
4113,-0.009464833809841476
4114,0.011433996924129228
4115,0.017717787188969762
4116,0.0064327227527515626
4117,0.006027880674114633
4118,0.008130173227801301
4119,0.008080924078083182
4120,0.009493514418376932
4121,0.00038935685601122587
4122,0.010633639472144121
4123,0.00237812489211946
4124,-0.0027574461446939003
4125,-0.010387178686638243
4126,-0.01965201419584252
4127,-0.002454749979633561
4128,0.00193245648139179
4129,-0.003552399580267632
4130,-0.010050435725290442
4131,-0.0089983410055831
4132,0.0024250129934676058
4133,0.018767589110790888
4134,0.015351940413999449
4135,-0.009939753912056877
4136,0.00015328309192102
4137,0.005321638546958617
4138,-0.0038398315501138505
4139,-0.007910226534953695
4140,-0.013288475511559025
4141,0.02369779705148996
4142,0.02455415840687382
4143,0.009574837994583233
4144,-0.006590914515631452
4145,-0.014054785458550809
4146,-0.006445288069310339
4147,-0.012331368463459936
4148,-0.029572854898477583
4149,-0.011800091666474149
4150,0.005606520373324693
4151,0.0028573586827016027
4152,-0.0004059861260745229
4153,0.0036357975072400343
4154,0.019703559641416773
4155,0.017762391501615227
4156,0.009368374035119469
4157,-0.012054293997697838
4158,0.0041143906380361394
4159,-0.004354305572279589
4160,0.006945933761480033
4161,0.004119557834294196
4162,-0.009595411142175905
4163,-0.004956867101009333
4164,-0.009095998047141158
4165,-0.0013394861900011528
4166,-0.016228945250051197
4167,-0.002516807847539297
4168,0.003866595323798936
4169,0.0037031950410572525
4170,0.004181583268858452
4171,0.02180457292162064
4172,0.011250190432591371
4173,-0.014208969013553983
4174,-0.00985102653652836
4175,-0.01222622281757924
4176,-0.006414961654343226
4177,-0.006164925142713842
4178,0.0037668083802944036
4179,0.020346901378593393
4180,0.009050495170530718
4181,0.01585574993296289
4182,0.03391298454093992
4183,0.012358687420625056
4184,-0.008359710123962503
4185,-0.017600255581282684
4186,-0.004623201226049776
4187,0.003264371166996013
4188,-0.01971230781417054
4189,-0.031248633261472713
4190,-0.05004211002595707
4191,0.058360021363796546
4192,0.04596883312655989
4193,-0.04192283209447839
4194,-0.0059785988416216265
4195,-0.029819232474825257
4196,0.006579388968007052
4197,0.005557085905610207
4198,-0.007462824428393957
4199,-0.00998976025476831
4200,0.006505241031191744
4201,0.011384560685418125
4202,0.0003205019339062292
4203,0.00979344929517263
4204,0.0019057504830525488
4205,-0.0009483713818702888
4206,-0.010071953369785117
4207,-0.006449055567668609
4208,0.03579841519915686
4209,0.034038713182663084
4210,0.021376224695171052
4211,0.01111887037524689
4212,-0.01950326040550972
4213,-0.01630520080532463
4214,-0.031032110515099486
4215,-0.016738514793238422
4216,-0.01740058119709077
4217,0.00628738442877611
4218,0.013747054902328517
4219,0.043295313175773634
4220,0.03187811740189316
4221,-0.020970674466867918
4222,-0.03174682114463841
4223,-0.03455632749476249
4224,-0.028377904779013016
4225,0.006053903571905211
4226,0.008581731191993886
4227,0.001020717497192878
4228,0.012765262808694302
4229,0.0026085597532188266
4230,-0.0023428629027559093
4231,-0.013786243769513446
4232,0.008402674150630849
4233,0.002979349378788772
4234,0.0054594570958445676
4235,0.00889556453009111
4236,0.014106677871113023
4237,0.0007914798438897405
4238,0.002720451151732922
4239,0.0017020682325079774
4240,0.0008413641671027681
4241,-0.000276374705593975
4242,-0.004923156674438028
4243,0.008114784096373099
4244,0.0010715704863153586
4245,0.007948131032891183
4246,-0.008083172516802795
4247,-0.013319874031291793
4248,-0.012136068324769428
4249,0.00593254501808115
4250,0.022682987465882813
4251,0.015985786185314585
4252,0.002733160550082342
4253,-0.004581063890287339
4254,-0.002912820241807746
4255,-0.018815731237108786
4256,-0.020166246769855574
4257,-0.012398976894994404
4258,-0.00691565552357243
4259,-0.007031305064078673
4260,-0.0031550649038941617
4261,0.010823114021681488
4262,0.0165516777843014
4263,-0.0077204994957102875
4264,0.006628402881475144
4265,0.0010574449220976199
4266,0.020195447167397722
4267,0.019755442251038025
4268,-0.019000184040389813
4269,-0.010311998728850887
4270,-0.019968600839070184
4271,-0.0018598913209200395
4272,0.003151486529643972
4273,0.026333320545658026
4274,0.003045354787991867
4275,-0.005102331830416255
4276,-0.002673079839888964
4277,-0.005991999158222361
4278,-0.006631820246025022
4279,0.008173036266598654
4280,0.009969407485341586
4281,-0.003399530934768986
4282,-0.0007769675959405295
4283,-0.023725235047708317
4284,-0.0015393530803264818
4285,0.002239278572081775
4286,0.013310856133615427
4287,0.01582511347533259
4288,0.0037140769147353423
4289,-0.009154682504053935
4290,-0.007059025727609058
4291,0.0011483881009334944
4292,0.0040858790516723215
4293,0.000931994904098201
4294,0.001913716087860489
4295,-0.001532289984847954
4296,0.009279870692446832
4297,0.007927449100321584
4298,-0.01003529413432359
4299,0.0007708796298200021
4300,-0.004437456977492295
4301,0.0012155891839070307
4302,-0.007968220611716335
4303,-0.020767072670698265
4304,0.0001189370982506259
4305,0.023305644761130763
4306,-0.000652749055950726
4307,-0.026205202589130904
4308,0.006633148582787921
4309,0.027669609440490142
4310,0.01464285676872686
4311,-0.036665702117663776
4312,-0.029321960124538665
4313,0.022243397047234596
4314,0.02078719388103473
4315,-0.00010843500888975746
4316,-0.004603927887173654
4317,-0.009400307435341076
4318,-0.02840932229683831
4319,0.03907809039642673
4320,0.06211086272516915
4321,0.015498465746751986
4322,-0.026164888566411797
4323,-0.06222937527974311
4324,-0.054660335127538665
4325,0.043438618917067684
4326,0.04309378528745075
4327,-0.012489677741164013
4328,-0.005723894561904726
4329,-0.02433435981487426
4330,-0.00646365094135919
4331,0.0037491947113935265
4332,0.020321781325824375
4333,-0.004745141795671332
4334,0.0036154021364191375
4335,0.0062814874438268005
4336,-0.0035772414118429617
4337,0.0023151459589790795
4338,0.009038520999512047
4339,0.010391880098958547
4340,0.001184337641386661
4341,-0.0030785854820795638
4342,-0.0227142184160879
4343,-0.005112427118440982
4344,0.005586985100577203
4345,0.01134247983469455
4346,0.0015571212237028061
4347,-0.007242243271519024
4348,-0.015223611508748791
4349,-0.013557945919419008
4350,-0.0015565780543173452
4351,0.0059363435205021225
4352,0.011700931614392838
4353,0.018207567031014633
4354,0.010699554265543396
4355,0.0003658440933301185
4356,-7.87649706112132e-05
4357,-0.008247459375398714
4358,-0.007071790878515685
4359,0.01592677278223206
4360,0.015658752372328624
4361,0.0024694382259285224
4362,-0.003175641526660958
4363,-0.02676523591357817
4364,-0.02343812986794814
4365,-0.01454913293463566
4366,0.002391300607251101
4367,0.0023255503608020887
4368,-0.00574656506285314
4369,0.00030993844847055675
4370,-0.0032745791997013628
4371,-0.004083420736046124
4372,0.008756242957649242
4373,0.01925827583141112
4374,0.02536974422463709
4375,0.03460215385282621
4376,0.002161288203140826
4377,-0.004310133658539137
4378,0.00020489137327865583
4379,-0.007969866058131657
4380,-0.005836406448774383
4381,-0.02667834334306958
4382,0.008685713774129671
4383,-0.007745414893698247
4384,-0.013772703206899448
4385,-0.004617012275098619
4386,-0.004746216149157501
4387,0.002475087445514503
4388,-0.00893955620084715
4389,0.008756370224388611
4390,-0.003134518354312732
4391,0.008339278745689818
4392,-0.030701218646520763
4393,-0.032639257370026445
4394,0.04546109525613135
4395,0.045399233969970865
4396,-0.012437607324806647
4397,-0.00886320349677728
4398,0.006740963024988638
4399,0.023228834392489614
4400,0.008087732365251706
4401,-0.006591630883520293
4402,-0.013922196684218744
4403,-0.008120693947105417
4404,-0.0039870865656039985
4405,-0.019189878632717965
4406,0.007338928119381224
4407,-0.0039266779218364925
4408,0.006844079793201325
4409,0.0063865329912854065
4410,-0.012880538040633525
4411,0.009418241053538785
4412,0.008573217875350474
4413,0.0035098936429129287
4414,-0.0024434439779488903
4415,-0.008579718305007025
4416,0.0024522761962847382
4417,0.01108263513105838
4418,-0.0012241357258884582
4419,-0.017086588069517183
4420,-0.005370257565316483
4421,-0.002724121989539018
4422,0.011210195620555915
4423,0.0038504791765604923
4424,0.005744823471046267
4425,0.01300240465619376
4426,0.009763214370169445
4427,-0.003637161407378513
4428,-0.02100670028194436
4429,-0.011599802921534274
4430,0.006189869101466852
4431,0.005306461479688552
4432,-0.007257490227750945
4433,0.00434316327146991
4434,0.0007129799557236832
4435,-0.01724968384127665
4436,0.001518388780601905
4437,0.013368622088170282
4438,9.521068489710613e-06
4439,-0.002973894932217719
4440,0.0022361414670784467
4441,-0.005885668791910451
4442,-0.001209697229897463
4443,0.0031235482640939605
4444,-0.007475620988089737
4445,0.003322842586058406
4446,-0.00014235985847278927
4447,-0.0037631894766184774
4448,0.0019615621968206483
4449,-0.00616592540172799
4450,0.0077512944494260005
4451,0.022624835606183717
4452,0.0006002899667676715
4453,-0.022703317994601437
4454,-0.024601767881068368
4455,0.07258290500554168
4456,0.05456115469036056
4457,-0.01898172789911344
4458,-0.011962004533559946
4459,-0.0320026722760815
4460,-0.021471090290252452
4461,-0.025715873280419556
4462,-0.008592890965174276
4463,0.001811974193755486
4464,-0.00400334485256306
4465,-0.009158102254786934
4466,-0.008571559749139033
4467,-0.020022239833168115
4468,0.004193815698396108
4469,0.01945639116362336
4470,0.024000316068137312
4471,0.02357278266090547
4472,0.00629432726882057
4473,0.006733821436025194
4474,-0.0010130418435907547
4475,0.008811262318357108
4476,-0.00304658872854094
4477,0.007978856707909925
4478,-0.013158233446402387
4479,-0.020185383582556542
4480,-0.005067193119612413
4481,0.000724982018698422
4482,0.007956176661244947
4483,0.012003762287620567
4484,-0.005812759933127952
4485,-0.010911643348275905
4486,-0.0033040045895836086
4487,0.0021116464835040285
4488,0.03131105041817698
4489,0.0007406452718814148
4490,-0.0026739699000761217
4491,0.014028133181495563
4492,-0.011673743355874018
4493,-0.013331059449485838
4494,-0.006452403654511767
4495,-0.013576949425918295
4496,-0.015854393844701935
4497,-0.012480797734773643
4498,-0.016589659699233032
4499,0.00940016586772714
4500,0.034656858935744474
4501,0.026482762886308308
4502,-0.014868269648734708
4503,-0.016677672258553926
4504,-0.0023150203117022154
4505,-0.0015802823787313073
4506,0.00861075134350487
4507,-0.005728578505613682
4508,-0.00012043090184461411
4509,0.013837616943231436
4510,0.021331570302656273
4511,0.0055744798228550985
4512,-0.005727716916584618
4513,-0.02745030310683935
4514,-0.024469604191365322
4515,-0.016367963921037773
4516,0.0028770805381064628
4517,0.016344655521959392
4518,-0.0009062856321261081
4519,-0.0006226844642142765
4520,0.023410419735280692
4521,0.03683958475100646
4522,0.016957392784186814
4523,0.0007735368835099432
4524,0.015531412622198931
4525,-0.0006603501615637781
4526,-0.014061182239769609
4527,-0.014198681789240487
4528,-0.02184487963959912
4529,-0.00899072815294532
4530,0.001962603004493072
4531,0.004802376536185947
4532,-0.02377154706952525
4533,-0.02099376245437892
4534,-0.007738602717656178
4535,-0.00273866533754784
4536,0.003760280609308749
4537,0.006903828007799711
4538,0.008840235831173358
4539,0.008387546581771673
4540,-0.0011388340687203524
4541,0.006358473195596638
4542,-0.0008998931234587056
4543,0.002388922671197769
4544,1.0029997569747234e-05
4545,-0.0019504200447470876
4546,0.02113947741589337
4547,0.010313900220205601
4548,0.006534546012166312
4549,0.01641123643172606
4550,0.003396567234344841
4551,-0.011339868437155464
4552,-0.029178482098318404
4553,-0.025514146441443942
4554,-0.00041737755255361574
4555,0.006697714000511797
4556,0.0034722590006244208
4557,-0.010143222498477248
4558,0.014937043466635266
4559,0.005112403596217266
4560,-0.0030098667674851916
4561,0.014716328313916087
