# OpenSignals Text File Format. Version 1
# {"98:D3:81:FD:6D:86": {"position": 0, "device": "bitalino_rev", "device name": "98:D3:81:FD:6D:86", "device connection": "BTH98:D3:81:FD:6D:86", "sampling rate": 1000, "resolution": [4, 1, 1, 1, 1, 10], "firmware version": 1282, "comments": "", "keywords": "", "mode": 0, "sync interval": 2, "date": "2024-4-19", "time": "12:32:35.124", "channels": [2], "sensor": ["ECGBIT"], "label": ["A2"], "column": ["nSeq", "I1", "I2", "O1", "O2", "A2"], "special": [{}], "digital IO": [0, 0, 1, 1]}}
# EndOfHeader
0	0	0	0	0	724	
1	0	0	0	0	748	
2	0	0	0	0	774	
3	0	0	0	0	799	
4	0	0	0	0	811	
5	0	0	0	0	811	
6	0	0	0	0	788	
7	0	0	0	0	761	
8	0	0	0	0	735	
9	0	0	0	0	727	
10	0	0	0	0	722	
11	0	0	0	0	702	
12	0	0	0	0	651	
13	0	0	0	0	608	
14	0	0	0	0	568	
15	0	0	0	0	519	
0	0	0	0	0	476	
1	0	0	0	0	438	
2	0	0	0	0	403	
3	0	0	0	0	376	
4	0	0	0	0	345	
5	0	0	0	0	311	
6	0	0	0	0	284	
7	0	0	0	0	271	
8	0	0	0	0	268	
9	0	0	0	0	283	
10	0	0	0	0	312	
11	0	0	0	0	336	
12	0	0	0	0	358	
13	0	0	0	0	365	
14	0	0	0	0	319	
15	0	0	0	0	263	
0	0	0	0	0	258	
1	0	0	0	0	271	
2	0	0	0	0	278	
3	0	0	0	0	287	
4	0	0	0	0	287	
5	0	0	0	0	295	
6	0	0	0	0	305	
7	0	0	0	0	319	
8	0	0	0	0	354	
9	0	0	0	0	398	
10	0	0	0	0	430	
11	0	0	0	0	460	
12	0	0	0	0	473	
13	0	0	0	0	450	
14	0	0	0	0	435	
15	0	0	0	0	449	
0	0	0	0	0	465	
1	0	0	0	0	467	
2	0	0	0	0	446	
3	0	0	0	0	431	
4	0	0	0	0	437	
5	0	0	0	0	451	
6	0	0	0	0	454	
7	0	0	0	0	462	
8	0	0	0	0	469	
9	0	0	0	0	473	
10	0	0	0	0	483	
11	0	0	0	0	502	
12	0	0	0	0	512	
13	0	0	0	0	510	
14	0	0	0	0	502	
15	0	0	0	0	495	
0	0	0	0	0	488	
1	0	0	0	0	487	
2	0	0	0	0	491	
3	0	0	0	0	498	
4	0	0	0	0	508	
5	0	0	0	0	502	
6	0	0	0	0	486	
7	0	0	0	0	480	
8	0	0	0	0	480	
9	0	0	0	0	476	
10	0	0	0	0	478	
11	0	0	0	0	480	
12	0	0	0	0	489	
13	0	0	0	0	504	
14	0	0	0	0	522	
15	0	0	0	0	543	
0	0	0	0	0	551	
1	0	0	0	0	549	
2	0	0	0	0	545	
3	0	0	0	0	531	
4	0	0	0	0	516	
5	0	0	0	0	512	
6	0	0	0	0	513	
7	0	0	0	0	513	
8	0	0	0	0	509	
9	0	0	0	0	505	
10	0	0	0	0	509	
11	0	0	0	0	518	
12	0	0	0	0	526	
13	0	0	0	0	525	
14	0	0	0	0	525	
15	0	0	0	0	528	
0	0	0	0	0	535	
1	0	0	0	0	540	
2	0	0	0	0	549	
3	0	0	0	0	553	
4	0	0	0	0	555	
5	0	0	0	0	550	
6	0	0	0	0	528	
7	0	0	0	0	509	
8	0	0	0	0	504	
9	0	0	0	0	507	
10	0	0	0	0	511	
11	0	0	0	0	512	
12	0	0	0	0	512	
13	0	0	0	0	511	
14	0	0	0	0	514	
15	0	0	0	0	515	
0	0	0	0	0	515	
1	0	0	0	0	515	
2	0	0	0	0	516	
3	0	0	0	0	519	
4	0	0	0	0	522	
5	0	0	0	0	523	
6	0	0	0	0	523	
7	0	0	0	0	516	
8	0	0	0	0	501	
9	0	0	0	0	494	
10	0	0	0	0	496	
11	0	0	0	0	500	
12	0	0	0	0	504	
13	0	0	0	0	512	
14	0	0	0	0	523	
15	0	0	0	0	529	
0	0	0	0	0	533	
1	0	0	0	0	526	
2	0	0	0	0	524	
3	0	0	0	0	519	
4	0	0	0	0	517	
5	0	0	0	0	519	
6	0	0	0	0	529	
7	0	0	0	0	533	
8	0	0	0	0	540	
9	0	0	0	0	550	
10	0	0	0	0	551	
11	0	0	0	0	543	
12	0	0	0	0	542	
13	0	0	0	0	546	
14	0	0	0	0	545	
15	0	0	0	0	540	
0	0	0	0	0	536	
1	0	0	0	0	530	
2	0	0	0	0	521	
3	0	0	0	0	514	
4	0	0	0	0	504	
5	0	0	0	0	489	
6	0	0	0	0	470	
7	0	0	0	0	455	
8	0	0	0	0	452	
9	0	0	0	0	451	
10	0	0	0	0	447	
11	0	0	0	0	443	
12	0	0	0	0	440	
13	0	0	0	0	426	
14	0	0	0	0	430	
15	0	0	0	0	447	
0	0	0	0	0	460	
1	0	0	0	0	498	
2	0	0	0	0	516	
3	0	0	0	0	503	
4	0	0	0	0	470	
5	0	0	0	0	429	
6	0	0	0	0	400	
7	0	0	0	0	406	
8	0	0	0	0	435	
9	0	0	0	0	471	
10	0	0	0	0	518	
11	0	0	0	0	577	
12	0	0	0	0	624	
13	0	0	0	0	650	
14	0	0	0	0	654	
15	0	0	0	0	640	
0	0	0	0	0	639	
1	0	0	0	0	642	
2	0	0	0	0	631	
3	0	0	0	0	615	
4	0	0	0	0	601	
5	0	0	0	0	587	
6	0	0	0	0	573	
7	0	0	0	0	590	
8	0	0	0	0	632	
9	0	0	0	0	674	
10	0	0	0	0	695	
11	0	0	0	0	696	
12	0	0	0	0	703	
13	0	0	0	0	696	
14	0	0	0	0	687	
15	0	0	0	0	678	
0	0	0	0	0	667	
1	0	0	0	0	657	
2	0	0	0	0	647	
3	0	0	0	0	637	
4	0	0	0	0	627	
5	0	0	0	0	620	
6	0	0	0	0	615	
7	0	0	0	0	606	
8	0	0	0	0	596	
9	0	0	0	0	583	
10	0	0	0	0	565	
11	0	0	0	0	551	
12	0	0	0	0	554	
13	0	0	0	0	562	
14	0	0	0	0	568	
15	0	0	0	0	579	
0	0	0	0	0	587	
1	0	0	0	0	583	
2	0	0	0	0	583	
3	0	0	0	0	591	
4	0	0	0	0	591	
5	0	0	0	0	588	
6	0	0	0	0	584	
7	0	0	0	0	570	
8	0	0	0	0	544	
9	0	0	0	0	548	
10	0	0	0	0	560	
11	0	0	0	0	556	
12	0	0	0	0	557	
13	0	0	0	0	571	
14	0	0	0	0	587	
15	0	0	0	0	589	
0	0	0	0	0	591	
1	0	0	0	0	593	
2	0	0	0	0	593	
3	0	0	0	0	605	
4	0	0	0	0	619	
5	0	0	0	0	632	
6	0	0	0	0	588	
7	0	0	0	0	550	
8	0	0	0	0	540	
9	0	0	0	0	537	
10	0	0	0	0	513	
11	0	0	0	0	513	
12	0	0	0	0	515	
13	0	0	0	0	521	
14	0	0	0	0	520	
15	0	0	0	0	527	
0	0	0	0	0	540	
1	0	0	0	0	547	
2	0	0	0	0	543	
3	0	0	0	0	538	
4	0	0	0	0	530	
5	0	0	0	0	525	
6	0	0	0	0	535	
7	0	0	0	0	558	
8	0	0	0	0	558	
9	0	0	0	0	552	
10	0	0	0	0	547	
11	0	0	0	0	544	
12	0	0	0	0	550	
13	0	0	0	0	559	
14	0	0	0	0	539	
15	0	0	0	0	505	
0	0	0	0	0	473	
1	0	0	0	0	463	
2	0	0	0	0	459	
3	0	0	0	0	449	
4	0	0	0	0	461	
5	0	0	0	0	480	
6	0	0	0	0	483	
7	0	0	0	0	488	
8	0	0	0	0	483	
9	0	0	0	0	472	
10	0	0	0	0	456	
11	0	0	0	0	452	
12	0	0	0	0	451	
13	0	0	0	0	455	
14	0	0	0	0	464	
15	0	0	0	0	466	
0	0	0	0	0	473	
1	0	0	0	0	475	
2	0	0	0	0	472	
3	0	0	0	0	471	
4	0	0	0	0	467	
5	0	0	0	0	462	
6	0	0	0	0	467	
7	0	0	0	0	467	
8	0	0	0	0	455	
9	0	0	0	0	442	
10	0	0	0	0	435	
11	0	0	0	0	444	
12	0	0	0	0	454	
13	0	0	0	0	455	
14	0	0	0	0	457	
15	0	0	0	0	464	
0	0	0	0	0	468	
1	0	0	0	0	478	
2	0	0	0	0	486	
3	0	0	0	0	489	
4	0	0	0	0	494	
5	0	0	0	0	497	
6	0	0	0	0	497	
7	0	0	0	0	489	
8	0	0	0	0	487	
9	0	0	0	0	489	
10	0	0	0	0	483	
11	0	0	0	0	480	
12	0	0	0	0	486	
13	0	0	0	0	483	
14	0	0	0	0	480	
15	0	0	0	0	476	
0	0	0	0	0	475	
1	0	0	0	0	472	
2	0	0	0	0	473	
3	0	0	0	0	474	
4	0	0	0	0	478	
5	0	0	0	0	481	
6	0	0	0	0	483	
7	0	0	0	0	481	
8	0	0	0	0	483	
9	0	0	0	0	486	
10	0	0	0	0	483	
11	0	0	0	0	478	
12	0	0	0	0	476	
13	0	0	0	0	477	
14	0	0	0	0	482	
15	0	0	0	0	486	
0	0	0	0	0	483	
1	0	0	0	0	485	
2	0	0	0	0	484	
3	0	0	0	0	483	
4	0	0	0	0	483	
5	0	0	0	0	483	
6	0	0	0	0	480	
7	0	0	0	0	472	
8	0	0	0	0	466	
9	0	0	0	0	468	
10	0	0	0	0	468	
11	0	0	0	0	465	
12	0	0	0	0	473	
13	0	0	0	0	481	
14	0	0	0	0	477	
15	0	0	0	0	474	
0	0	0	0	0	474	
1	0	0	0	0	471	
2	0	0	0	0	469	
3	0	0	0	0	468	
4	0	0	0	0	467	
5	0	0	0	0	469	
6	0	0	0	0	470	
7	0	0	0	0	470	
8	0	0	0	0	470	
9	0	0	0	0	476	
10	0	0	0	0	483	
11	0	0	0	0	484	
12	0	0	0	0	482	
13	0	0	0	0	480	
14	0	0	0	0	481	
15	0	0	0	0	480	
0	0	0	0	0	481	
1	0	0	0	0	481	
2	0	0	0	0	479	
3	0	0	0	0	479	
4	0	0	0	0	479	
5	0	0	0	0	481	
6	0	0	0	0	478	
7	0	0	0	0	478	
8	0	0	0	0	486	
9	0	0	0	0	497	
10	0	0	0	0	495	
11	0	0	0	0	493	
12	0	0	0	0	493	
13	0	0	0	0	492	
14	0	0	0	0	493	
15	0	0	0	0	494	
0	0	0	0	0	493	
1	0	0	0	0	492	
2	0	0	0	0	493	
3	0	0	0	0	496	
4	0	0	0	0	496	
5	0	0	0	0	492	
6	0	0	0	0	486	
7	0	0	0	0	484	
8	0	0	0	0	485	
9	0	0	0	0	487	
10	0	0	0	0	489	
11	0	0	0	0	488	
12	0	0	0	0	487	
13	0	0	0	0	493	
14	0	0	0	0	501	
15	0	0	0	0	500	
0	0	0	0	0	497	
1	0	0	0	0	486	
2	0	0	0	0	472	
3	0	0	0	0	489	
4	0	0	0	0	493	
5	0	0	0	0	484	
6	0	0	0	0	483	
7	0	0	0	0	492	
8	0	0	0	0	499	
9	0	0	0	0	502	
10	0	0	0	0	504	
11	0	0	0	0	510	
12	0	0	0	0	521	
13	0	0	0	0	530	
14	0	0	0	0	536	
15	0	0	0	0	544	
0	0	0	0	0	546	
1	0	0	0	0	550	
2	0	0	0	0	530	
3	0	0	0	0	487	
4	0	0	0	0	456	
5	0	0	0	0	443	
6	0	0	0	0	470	
7	0	0	0	0	494	
8	0	0	0	0	497	
9	0	0	0	0	490	
10	0	0	0	0	499	
11	0	0	0	0	510	
12	0	0	0	0	508	
13	0	0	0	0	509	
14	0	0	0	0	514	
15	0	0	0	0	528	
0	0	0	0	0	532	
1	0	0	0	0	527	
2	0	0	0	0	534	
3	0	0	0	0	540	
4	0	0	0	0	546	
5	0	0	0	0	532	
6	0	0	0	0	528	
7	0	0	0	0	534	
8	0	0	0	0	546	
9	0	0	0	0	537	
10	0	0	0	0	505	
11	0	0	0	0	490	
12	0	0	0	0	483	
13	0	0	0	0	481	
14	0	0	0	0	465	
15	0	0	0	0	457	
0	0	0	0	0	455	
1	0	0	0	0	457	
2	0	0	0	0	464	
3	0	0	0	0	473	
4	0	0	0	0	479	
5	0	0	0	0	475	
6	0	0	0	0	472	
7	0	0	0	0	473	
8	0	0	0	0	475	
9	0	0	0	0	481	
10	0	0	0	0	494	
11	0	0	0	0	510	
12	0	0	0	0	519	
13	0	0	0	0	517	
14	0	0	0	0	513	
15	0	0	0	0	509	
0	0	0	0	0	511	
1	0	0	0	0	514	
2	0	0	0	0	522	
3	0	0	0	0	527	
4	0	0	0	0	535	
5	0	0	0	0	539	
6	0	0	0	0	519	
7	0	0	0	0	504	
8	0	0	0	0	499	
9	0	0	0	0	493	
10	0	0	0	0	489	
11	0	0	0	0	490	
12	0	0	0	0	491	
13	0	0	0	0	492	
14	0	0	0	0	490	
15	0	0	0	0	494	
0	0	0	0	0	500	
1	0	0	0	0	500	
2	0	0	0	0	497	
3	0	0	0	0	496	
4	0	0	0	0	497	
5	0	0	0	0	507	
6	0	0	0	0	512	
7	0	0	0	0	508	
8	0	0	0	0	512	
9	0	0	0	0	528	
10	0	0	0	0	536	
11	0	0	0	0	559	
12	0	0	0	0	575	
13	0	0	0	0	550	
14	0	0	0	0	529	
15	0	0	0	0	513	
0	0	0	0	0	493	
1	0	0	0	0	460	
2	0	0	0	0	446	
3	0	0	0	0	445	
4	0	0	0	0	452	
5	0	0	0	0	465	
6	0	0	0	0	471	
7	0	0	0	0	474	
8	0	0	0	0	485	
9	0	0	0	0	495	
10	0	0	0	0	502	
11	0	0	0	0	506	
12	0	0	0	0	517	
13	0	0	0	0	515	
14	0	0	0	0	488	
15	0	0	0	0	460	
0	0	0	0	0	454	
1	0	0	0	0	460	
2	0	0	0	0	466	
3	0	0	0	0	466	
4	0	0	0	0	465	
5	0	0	0	0	462	
6	0	0	0	0	460	
7	0	0	0	0	464	
8	0	0	0	0	470	
9	0	0	0	0	475	
10	0	0	0	0	474	
11	0	0	0	0	474	
12	0	0	0	0	473	
13	0	0	0	0	471	
14	0	0	0	0	472	
15	0	0	0	0	472	
0	0	0	0	0	468	
1	0	0	0	0	467	
2	0	0	0	0	469	
3	0	0	0	0	472	
4	0	0	0	0	477	
5	0	0	0	0	484	
6	0	0	0	0	484	
7	0	0	0	0	484	
8	0	0	0	0	484	
9	0	0	0	0	483	
10	0	0	0	0	484	
11	0	0	0	0	487	
12	0	0	0	0	492	
13	0	0	0	0	495	
14	0	0	0	0	497	
15	0	0	0	0	497	
0	0	0	0	0	495	
1	0	0	0	0	487	
2	0	0	0	0	486	
3	0	0	0	0	493	
4	0	0	0	0	499	
5	0	0	0	0	501	
6	0	0	0	0	497	
7	0	0	0	0	494	
8	0	0	0	0	492	
9	0	0	0	0	491	
10	0	0	0	0	490	
11	0	0	0	0	489	
12	0	0	0	0	493	
13	0	0	0	0	491	
14	0	0	0	0	484	
15	0	0	0	0	477	
0	0	0	0	0	474	
1	0	0	0	0	478	
2	0	0	0	0	487	
3	0	0	0	0	498	
4	0	0	0	0	499	
5	0	0	0	0	496	
6	0	0	0	0	495	
7	0	0	0	0	496	
8	0	0	0	0	496	
9	0	0	0	0	495	
10	0	0	0	0	484	
11	0	0	0	0	468	
12	0	0	0	0	459	
13	0	0	0	0	452	
14	0	0	0	0	450	
15	0	0	0	0	454	
0	0	0	0	0	459	
1	0	0	0	0	463	
2	0	0	0	0	461	
3	0	0	0	0	457	
4	0	0	0	0	461	
5	0	0	0	0	470	
6	0	0	0	0	479	
7	0	0	0	0	496	
8	0	0	0	0	526	
9	0	0	0	0	571	
10	0	0	0	0	615	
11	0	0	0	0	642	
12	0	0	0	0	674	
13	0	0	0	0	716	
14	0	0	0	0	739	
15	0	0	0	0	754	
0	0	0	0	0	776	
1	0	0	0	0	794	
2	0	0	0	0	802	
3	0	0	0	0	801	
4	0	0	0	0	804	
5	0	0	0	0	802	
6	0	0	0	0	796	
7	0	0	0	0	780	
8	0	0	0	0	761	
9	0	0	0	0	738	
10	0	0	0	0	704	
11	0	0	0	0	659	
12	0	0	0	0	611	
13	0	0	0	0	549	
14	0	0	0	0	493	
15	0	0	0	0	449	
0	0	0	0	0	431	
1	0	0	0	0	421	
2	0	0	0	0	396	
3	0	0	0	0	364	
4	0	0	0	0	349	
5	0	0	0	0	348	
6	0	0	0	0	363	
7	0	0	0	0	376	
8	0	0	0	0	388	
9	0	0	0	0	400	
10	0	0	0	0	399	
11	0	0	0	0	397	
12	0	0	0	0	400	
13	0	0	0	0	398	
14	0	0	0	0	391	
15	0	0	0	0	383	
0	0	0	0	0	378	
1	0	0	0	0	375	
2	0	0	0	0	373	
3	0	0	0	0	375	
4	0	0	0	0	376	
5	0	0	0	0	379	
6	0	0	0	0	381	
7	0	0	0	0	391	
8	0	0	0	0	407	
9	0	0	0	0	404	
10	0	0	0	0	403	
11	0	0	0	0	409	
12	0	0	0	0	405	
13	0	0	0	0	401	
14	0	0	0	0	384	
15	0	0	0	0	390	
0	0	0	0	0	420	
1	0	0	0	0	454	
2	0	0	0	0	467	
3	0	0	0	0	484	
4	0	0	0	0	491	
5	0	0	0	0	496	
6	0	0	0	0	501	
7	0	0	0	0	509	
8	0	0	0	0	511	
9	0	0	0	0	518	
10	0	0	0	0	528	
11	0	0	0	0	533	
12	0	0	0	0	543	
13	0	0	0	0	559	
14	0	0	0	0	571	
15	0	0	0	0	594	
0	0	0	0	0	604	
1	0	0	0	0	572	
2	0	0	0	0	535	
3	0	0	0	0	517	
4	0	0	0	0	511	
5	0	0	0	0	502	
6	0	0	0	0	487	
7	0	0	0	0	469	
8	0	0	0	0	441	
9	0	0	0	0	428	
10	0	0	0	0	455	
11	0	0	0	0	479	
12	0	0	0	0	484	
13	0	0	0	0	497	
14	0	0	0	0	521	
15	0	0	0	0	551	
0	0	0	0	0	568	
1	0	0	0	0	580	
2	0	0	0	0	574	
3	0	0	0	0	557	
4	0	0	0	0	552	
5	0	0	0	0	536	
6	0	0	0	0	533	
7	0	0	0	0	537	
8	0	0	0	0	553	
9	0	0	0	0	550	
10	0	0	0	0	537	
11	0	0	0	0	530	
12	0	0	0	0	540	
13	0	0	0	0	543	
14	0	0	0	0	536	
15	0	0	0	0	528	
0	0	0	0	0	535	
1	0	0	0	0	532	
2	0	0	0	0	533	
3	0	0	0	0	530	
4	0	0	0	0	533	
5	0	0	0	0	521	
6	0	0	0	0	496	
7	0	0	0	0	498	
8	0	0	0	0	504	
9	0	0	0	0	525	
10	0	0	0	0	563	
11	0	0	0	0	591	
12	0	0	0	0	586	
13	0	0	0	0	563	
14	0	0	0	0	547	
15	0	0	0	0	516	
0	0	0	0	0	487	
1	0	0	0	0	464	
2	0	0	0	0	468	
3	0	0	0	0	491	
4	0	0	0	0	507	
5	0	0	0	0	512	
6	0	0	0	0	513	
7	0	0	0	0	517	
8	0	0	0	0	518	
9	0	0	0	0	521	
10	0	0	0	0	529	
11	0	0	0	0	531	
12	0	0	0	0	532	
13	0	0	0	0	532	
14	0	0	0	0	531	
15	0	0	0	0	526	
0	0	0	0	0	518	
1	0	0	0	0	511	
2	0	0	0	0	502	
3	0	0	0	0	494	
4	0	0	0	0	484	
5	0	0	0	0	479	
6	0	0	0	0	474	
7	0	0	0	0	476	
8	0	0	0	0	487	
9	0	0	0	0	512	
10	0	0	0	0	537	
11	0	0	0	0	550	
12	0	0	0	0	547	
13	0	0	0	0	534	
14	0	0	0	0	517	
15	0	0	0	0	501	
0	0	0	0	0	486	
1	0	0	0	0	477	
2	0	0	0	0	481	
3	0	0	0	0	484	
4	0	0	0	0	482	
5	0	0	0	0	473	
6	0	0	0	0	469	
7	0	0	0	0	473	
8	0	0	0	0	486	
9	0	0	0	0	506	
10	0	0	0	0	525	
11	0	0	0	0	543	
12	0	0	0	0	552	
13	0	0	0	0	557	
14	0	0	0	0	548	
15	0	0	0	0	543	
0	0	0	0	0	544	
1	0	0	0	0	543	
2	0	0	0	0	533	
3	0	0	0	0	525	
4	0	0	0	0	519	
5	0	0	0	0	516	
6	0	0	0	0	509	
7	0	0	0	0	490	
8	0	0	0	0	472	
9	0	0	0	0	469	
10	0	0	0	0	488	
11	0	0	0	0	511	
12	0	0	0	0	520	
13	0	0	0	0	519	
14	0	0	0	0	524	
15	0	0	0	0	537	
0	0	0	0	0	556	
1	0	0	0	0	566	
2	0	0	0	0	566	
3	0	0	0	0	559	
4	0	0	0	0	552	
5	0	0	0	0	557	
6	0	0	0	0	556	
7	0	0	0	0	557	
8	0	0	0	0	559	
9	0	0	0	0	570	
10	0	0	0	0	581	
11	0	0	0	0	590	
12	0	0	0	0	597	
13	0	0	0	0	604	
14	0	0	0	0	601	
15	0	0	0	0	598	
0	0	0	0	0	592	
1	0	0	0	0	585	
2	0	0	0	0	582	
3	0	0	0	0	577	
4	0	0	0	0	573	
5	0	0	0	0	576	
6	0	0	0	0	579	
7	0	0	0	0	580	
8	0	0	0	0	591	
9	0	0	0	0	600	
10	0	0	0	0	604	
11	0	0	0	0	603	
12	0	0	0	0	605	
13	0	0	0	0	614	
14	0	0	0	0	614	
15	0	0	0	0	606	
0	0	0	0	0	597	
1	0	0	0	0	592	
2	0	0	0	0	590	
3	0	0	0	0	589	
4	0	0	0	0	588	
5	0	0	0	0	585	
6	0	0	0	0	580	
7	0	0	0	0	570	
8	0	0	0	0	569	
9	0	0	0	0	572	
10	0	0	0	0	574	
11	0	0	0	0	574	
12	0	0	0	0	566	
13	0	0	0	0	560	
14	0	0	0	0	557	
15	0	0	0	0	560	
0	0	0	0	0	564	
1	0	0	0	0	563	
2	0	0	0	0	567	
3	0	0	0	0	567	
4	0	0	0	0	565	
5	0	0	0	0	564	
6	0	0	0	0	564	
7	0	0	0	0	566	
8	0	0	0	0	566	
9	0	0	0	0	569	
10	0	0	0	0	572	
11	0	0	0	0	571	
12	0	0	0	0	569	
13	0	0	0	0	565	
14	0	0	0	0	559	
15	0	0	0	0	560	
0	0	0	0	0	556	
1	0	0	0	0	547	
2	0	0	0	0	541	
3	0	0	0	0	530	
4	0	0	0	0	520	
5	0	0	0	0	516	
6	0	0	0	0	511	
7	0	0	0	0	510	
8	0	0	0	0	516	
9	0	0	0	0	525	
10	0	0	0	0	528	
11	0	0	0	0	527	
12	0	0	0	0	524	
13	0	0	0	0	517	
14	0	0	0	0	517	
15	0	0	0	0	515	
0	0	0	0	0	512	
1	0	0	0	0	511	
2	0	0	0	0	507	
3	0	0	0	0	503	
4	0	0	0	0	502	
5	0	0	0	0	505	
6	0	0	0	0	508	
7	0	0	0	0	511	
8	0	0	0	0	511	
9	0	0	0	0	509	
10	0	0	0	0	510	
11	0	0	0	0	512	
12	0	0	0	0	502	
13	0	0	0	0	494	
14	0	0	0	0	490	
15	0	0	0	0	485	
0	0	0	0	0	479	
1	0	0	0	0	479	
2	0	0	0	0	480	
3	0	0	0	0	480	
4	0	0	0	0	481	
5	0	0	0	0	479	
6	0	0	0	0	477	
7	0	0	0	0	486	
8	0	0	0	0	490	
9	0	0	0	0	487	
10	0	0	0	0	486	
11	0	0	0	0	484	
12	0	0	0	0	487	
13	0	0	0	0	487	
14	0	0	0	0	491	
15	0	0	0	0	487	
0	0	0	0	0	482	
1	0	0	0	0	487	
2	0	0	0	0	496	
3	0	0	0	0	503	
4	0	0	0	0	518	
5	0	0	0	0	514	
6	0	0	0	0	494	
7	0	0	0	0	480	
8	0	0	0	0	477	
9	0	0	0	0	477	
10	0	0	0	0	478	
11	0	0	0	0	477	
12	0	0	0	0	473	
13	0	0	0	0	470	
14	0	0	0	0	472	
15	0	0	0	0	467	
0	0	0	0	0	465	
1	0	0	0	0	469	
2	0	0	0	0	478	
3	0	0	0	0	485	
4	0	0	0	0	486	
5	0	0	0	0	488	
6	0	0	0	0	490	
7	0	0	0	0	492	
8	0	0	0	0	489	
9	0	0	0	0	489	
10	0	0	0	0	489	
11	0	0	0	0	487	
12	0	0	0	0	481	
13	0	0	0	0	481	
14	0	0	0	0	483	
15	0	0	0	0	489	
0	0	0	0	0	485	
1	0	0	0	0	478	
2	0	0	0	0	473	
3	0	0	0	0	471	
4	0	0	0	0	468	
5	0	0	0	0	473	
6	0	0	0	0	469	
7	0	0	0	0	468	
8	0	0	0	0	463	
9	0	0	0	0	465	
10	0	0	0	0	474	
11	0	0	0	0	485	
12	0	0	0	0	491	
13	0	0	0	0	496	
14	0	0	0	0	495	
15	0	0	0	0	498	
0	0	0	0	0	496	
1	0	0	0	0	498	
2	0	0	0	0	497	
3	0	0	0	0	498	
4	0	0	0	0	499	
5	0	0	0	0	496	
6	0	0	0	0	494	
7	0	0	0	0	490	
8	0	0	0	0	490	
9	0	0	0	0	491	
10	0	0	0	0	494	
11	0	0	0	0	496	
12	0	0	0	0	497	
13	0	0	0	0	501	
14	0	0	0	0	507	
15	0	0	0	0	510	
0	0	0	0	0	507	
1	0	0	0	0	500	
2	0	0	0	0	492	
3	0	0	0	0	491	
4	0	0	0	0	491	
5	0	0	0	0	486	
6	0	0	0	0	484	
7	0	0	0	0	488	
8	0	0	0	0	491	
9	0	0	0	0	491	
10	0	0	0	0	489	
11	0	0	0	0	493	
12	0	0	0	0	495	
13	0	0	0	0	493	
14	0	0	0	0	489	
15	0	0	0	0	487	
0	0	0	0	0	490	
1	0	0	0	0	480	
2	0	0	0	0	463	
3	0	0	0	0	439	
4	0	0	0	0	419	
5	0	0	0	0	396	
6	0	0	0	0	384	
7	0	0	0	0	382	
8	0	0	0	0	386	
9	0	0	0	0	391	
10	0	0	0	0	400	
11	0	0	0	0	413	
12	0	0	0	0	429	
13	0	0	0	0	444	
14	0	0	0	0	456	
15	0	0	0	0	462	
0	0	0	0	0	462	
1	0	0	0	0	466	
2	0	0	0	0	441	
3	0	0	0	0	418	
4	0	0	0	0	421	
5	0	0	0	0	434	
6	0	0	0	0	450	
7	0	0	0	0	455	
8	0	0	0	0	461	
9	0	0	0	0	465	
10	0	0	0	0	470	
11	0	0	0	0	473	
12	0	0	0	0	472	
13	0	0	0	0	476	
14	0	0	0	0	495	
15	0	0	0	0	519	
0	0	0	0	0	539	
1	0	0	0	0	564	
2	0	0	0	0	575	
3	0	0	0	0	566	
4	0	0	0	0	553	
5	0	0	0	0	538	
6	0	0	0	0	533	
7	0	0	0	0	537	
8	0	0	0	0	535	
9	0	0	0	0	529	
10	0	0	0	0	514	
11	0	0	0	0	494	
12	0	0	0	0	467	
13	0	0	0	0	446	
14	0	0	0	0	448	
15	0	0	0	0	455	
0	0	0	0	0	458	
1	0	0	0	0	467	
2	0	0	0	0	477	
3	0	0	0	0	480	
4	0	0	0	0	482	
5	0	0	0	0	488	
6	0	0	0	0	497	
7	0	0	0	0	505	
8	0	0	0	0	510	
9	0	0	0	0	511	
10	0	0	0	0	508	
11	0	0	0	0	506	
12	0	0	0	0	507	
13	0	0	0	0	517	
14	0	0	0	0	521	
15	0	0	0	0	521	
0	0	0	0	0	513	
1	0	0	0	0	505	
2	0	0	0	0	507	
3	0	0	0	0	505	
4	0	0	0	0	496	
5	0	0	0	0	485	
6	0	0	0	0	478	
7	0	0	0	0	496	
8	0	0	0	0	524	
9	0	0	0	0	547	
10	0	0	0	0	562	
11	0	0	0	0	568	
12	0	0	0	0	568	
13	0	0	0	0	565	
14	0	0	0	0	559	
15	0	0	0	0	551	
0	0	0	0	0	547	
1	0	0	0	0	544	
2	0	0	0	0	547	
3	0	0	0	0	549	
4	0	0	0	0	543	
5	0	0	0	0	542	
6	0	0	0	0	535	
7	0	0	0	0	520	
8	0	0	0	0	522	
9	0	0	0	0	532	
10	0	0	0	0	531	
11	0	0	0	0	529	
12	0	0	0	0	531	
13	0	0	0	0	537	
14	0	0	0	0	550	
15	0	0	0	0	551	
0	0	0	0	0	554	
1	0	0	0	0	561	
2	0	0	0	0	563	
3	0	0	0	0	564	
4	0	0	0	0	561	
5	0	0	0	0	551	
6	0	0	0	0	541	
7	0	0	0	0	537	
8	0	0	0	0	540	
9	0	0	0	0	555	
10	0	0	0	0	560	
11	0	0	0	0	539	
12	0	0	0	0	515	
13	0	0	0	0	504	
14	0	0	0	0	500	
15	0	0	0	0	495	
0	0	0	0	0	485	
1	0	0	0	0	473	
2	0	0	0	0	468	
3	0	0	0	0	476	
4	0	0	0	0	489	
5	0	0	0	0	498	
6	0	0	0	0	511	
7	0	0	0	0	515	
8	0	0	0	0	504	
9	0	0	0	0	489	
10	0	0	0	0	491	
11	0	0	0	0	510	
12	0	0	0	0	514	
13	0	0	0	0	515	
14	0	0	0	0	515	
15	0	0	0	0	508	
0	0	0	0	0	486	
1	0	0	0	0	471	
2	0	0	0	0	481	
3	0	0	0	0	496	
4	0	0	0	0	500	
5	0	0	0	0	504	
6	0	0	0	0	507	
7	0	0	0	0	507	
8	0	0	0	0	521	
9	0	0	0	0	532	
10	0	0	0	0	526	
11	0	0	0	0	509	
12	0	0	0	0	497	
13	0	0	0	0	491	
14	0	0	0	0	487	
15	0	0	0	0	486	
0	0	0	0	0	486	
1	0	0	0	0	497	
2	0	0	0	0	507	
3	0	0	0	0	501	
4	0	0	0	0	499	
5	0	0	0	0	504	
6	0	0	0	0	507	
7	0	0	0	0	508	
8	0	0	0	0	508	
9	0	0	0	0	505	
10	0	0	0	0	499	
11	0	0	0	0	491	
12	0	0	0	0	484	
13	0	0	0	0	472	
14	0	0	0	0	467	
15	0	0	0	0	473	
0	0	0	0	0	480	
1	0	0	0	0	495	
2	0	0	0	0	512	
3	0	0	0	0	529	
4	0	0	0	0	539	
5	0	0	0	0	542	
6	0	0	0	0	543	
7	0	0	0	0	540	
8	0	0	0	0	536	
9	0	0	0	0	533	
10	0	0	0	0	533	
11	0	0	0	0	536	
12	0	0	0	0	535	
13	0	0	0	0	532	
14	0	0	0	0	530	
15	0	0	0	0	524	
0	0	0	0	0	520	
1	0	0	0	0	517	
2	0	0	0	0	510	
3	0	0	0	0	505	
4	0	0	0	0	506	
5	0	0	0	0	516	
6	0	0	0	0	521	
7	0	0	0	0	524	
8	0	0	0	0	524	
9	0	0	0	0	527	
10	0	0	0	0	531	
11	0	0	0	0	529	
12	0	0	0	0	527	
13	0	0	0	0	524	
14	0	0	0	0	523	
15	0	0	0	0	530	
0	0	0	0	0	548	
1	0	0	0	0	565	
2	0	0	0	0	579	
3	0	0	0	0	588	
4	0	0	0	0	591	
5	0	0	0	0	600	
6	0	0	0	0	625	
7	0	0	0	0	646	
8	0	0	0	0	660	
9	0	0	0	0	678	
10	0	0	0	0	700	
11	0	0	0	0	721	
12	0	0	0	0	732	
13	0	0	0	0	743	
14	0	0	0	0	756	
15	0	0	0	0	769	
0	0	0	0	0	779	
1	0	0	0	0	785	
2	0	0	0	0	795	
3	0	0	0	0	797	
4	0	0	0	0	796	
5	0	0	0	0	789	
6	0	0	0	0	780	
7	0	0	0	0	767	
8	0	0	0	0	748	
9	0	0	0	0	723	
10	0	0	0	0	694	
11	0	0	0	0	663	
12	0	0	0	0	625	
13	0	0	0	0	580	
14	0	0	0	0	535	
15	0	0	0	0	496	
0	0	0	0	0	459	
1	0	0	0	0	426	
2	0	0	0	0	401	
3	0	0	0	0	375	
4	0	0	0	0	355	
5	0	0	0	0	339	
6	0	0	0	0	322	
7	0	0	0	0	307	
8	0	0	0	0	290	
9	0	0	0	0	280	
10	0	0	0	0	280	
11	0	0	0	0	280	
12	0	0	0	0	281	
13	0	0	0	0	293	
14	0	0	0	0	319	
15	0	0	0	0	345	
0	0	0	0	0	358	
1	0	0	0	0	363	
2	0	0	0	0	369	
3	0	0	0	0	377	
4	0	0	0	0	386	
5	0	0	0	0	391	
6	0	0	0	0	396	
7	0	0	0	0	400	
8	0	0	0	0	406	
9	0	0	0	0	416	
10	0	0	0	0	430	
11	0	0	0	0	444	
12	0	0	0	0	450	
13	0	0	0	0	451	
14	0	0	0	0	456	
15	0	0	0	0	462	
0	0	0	0	0	465	
1	0	0	0	0	464	
2	0	0	0	0	474	
3	0	0	0	0	487	
4	0	0	0	0	492	
5	0	0	0	0	495	
6	0	0	0	0	500	
7	0	0	0	0	504	
8	0	0	0	0	504	
9	0	0	0	0	496	
10	0	0	0	0	496	
11	0	0	0	0	499	
12	0	0	0	0	504	
13	0	0	0	0	502	
14	0	0	0	0	499	
15	0	0	0	0	501	
0	0	0	0	0	499	
1	0	0	0	0	491	
2	0	0	0	0	488	
3	0	0	0	0	489	
4	0	0	0	0	489	
5	0	0	0	0	497	
6	0	0	0	0	507	
7	0	0	0	0	508	
8	0	0	0	0	505	
9	0	0	0	0	504	
10	0	0	0	0	510	
11	0	0	0	0	508	
12	0	0	0	0	511	
13	0	0	0	0	519	
14	0	0	0	0	526	
15	0	0	0	0	524	
0	0	0	0	0	525	
1	0	0	0	0	521	
2	0	0	0	0	524	
3	0	0	0	0	525	
4	0	0	0	0	523	
5	0	0	0	0	524	
6	0	0	0	0	518	
7	0	0	0	0	515	
8	0	0	0	0	526	
9	0	0	0	0	532	
10	0	0	0	0	539	
11	0	0	0	0	544	
12	0	0	0	0	539	
13	0	0	0	0	534	
14	0	0	0	0	536	
15	0	0	0	0	524	
0	0	0	0	0	517	
1	0	0	0	0	516	
2	0	0	0	0	516	
3	0	0	0	0	513	
4	0	0	0	0	524	
5	0	0	0	0	534	
6	0	0	0	0	543	
7	0	0	0	0	551	
8	0	0	0	0	547	
9	0	0	0	0	541	
10	0	0	0	0	543	
11	0	0	0	0	549	
12	0	0	0	0	532	
13	0	0	0	0	515	
14	0	0	0	0	511	
15	0	0	0	0	522	
0	0	0	0	0	529	
1	0	0	0	0	531	
2	0	0	0	0	537	
3	0	0	0	0	544	
4	0	0	0	0	542	
5	0	0	0	0	524	
6	0	0	0	0	520	
7	0	0	0	0	520	
8	0	0	0	0	521	
9	0	0	0	0	526	
10	0	0	0	0	531	
11	0	0	0	0	548	
12	0	0	0	0	560	
13	0	0	0	0	561	
14	0	0	0	0	559	
15	0	0	0	0	551	
0	0	0	0	0	539	
1	0	0	0	0	537	
2	0	0	0	0	543	
3	0	0	0	0	541	
4	0	0	0	0	542	
5	0	0	0	0	531	
6	0	0	0	0	529	
7	0	0	0	0	531	
8	0	0	0	0	532	
9	0	0	0	0	537	
10	0	0	0	0	540	
11	0	0	0	0	543	
12	0	0	0	0	543	
13	0	0	0	0	545	
14	0	0	0	0	553	
15	0	0	0	0	569	
0	0	0	0	0	588	
1	0	0	0	0	584	
2	0	0	0	0	557	
3	0	0	0	0	528	
4	0	0	0	0	511	
5	0	0	0	0	506	
6	0	0	0	0	513	
7	0	0	0	0	520	
8	0	0	0	0	525	
9	0	0	0	0	529	
10	0	0	0	0	536	
11	0	0	0	0	541	
12	0	0	0	0	547	
13	0	0	0	0	545	
14	0	0	0	0	545	
15	0	0	0	0	545	
0	0	0	0	0	537	
1	0	0	0	0	535	
2	0	0	0	0	532	
3	0	0	0	0	538	
4	0	0	0	0	542	
5	0	0	0	0	544	
6	0	0	0	0	542	
7	0	0	0	0	539	
8	0	0	0	0	541	
9	0	0	0	0	543	
10	0	0	0	0	541	
11	0	0	0	0	534	
12	0	0	0	0	527	
13	0	0	0	0	520	
14	0	0	0	0	524	
15	0	0	0	0	531	
0	0	0	0	0	534	
1	0	0	0	0	536	
2	0	0	0	0	540	
3	0	0	0	0	544	
4	0	0	0	0	546	
5	0	0	0	0	539	
6	0	0	0	0	524	
7	0	0	0	0	521	
8	0	0	0	0	525	
9	0	0	0	0	529	
10	0	0	0	0	535	
11	0	0	0	0	541	
12	0	0	0	0	545	
13	0	0	0	0	548	
14	0	0	0	0	549	
15	0	0	0	0	562	
0	0	0	0	0	566	
1	0	0	0	0	571	
2	0	0	0	0	578	
3	0	0	0	0	580	
4	0	0	0	0	579	
5	0	0	0	0	575	
6	0	0	0	0	581	
7	0	0	0	0	596	
8	0	0	0	0	599	
9	0	0	0	0	570	
10	0	0	0	0	543	
11	0	0	0	0	518	
12	0	0	0	0	507	
13	0	0	0	0	514	
14	0	0	0	0	525	
15	0	0	0	0	531	
0	0	0	0	0	541	
1	0	0	0	0	550	
2	0	0	0	0	555	
3	0	0	0	0	556	
4	0	0	0	0	554	
5	0	0	0	0	557	
6	0	0	0	0	558	
7	0	0	0	0	555	
8	0	0	0	0	551	
9	0	0	0	0	545	
10	0	0	0	0	542	
11	0	0	0	0	543	
12	0	0	0	0	543	
13	0	0	0	0	541	
14	0	0	0	0	543	
15	0	0	0	0	544	
0	0	0	0	0	535	
1	0	0	0	0	529	
2	0	0	0	0	524	
3	0	0	0	0	525	
4	0	0	0	0	527	
5	0	0	0	0	523	
6	0	0	0	0	528	
7	0	0	0	0	529	
8	0	0	0	0	531	
9	0	0	0	0	535	
10	0	0	0	0	540	
11	0	0	0	0	540	
12	0	0	0	0	537	
13	0	0	0	0	530	
14	0	0	0	0	516	
15	0	0	0	0	517	
0	0	0	0	0	518	
1	0	0	0	0	503	
2	0	0	0	0	497	
3	0	0	0	0	498	
4	0	0	0	0	491	
5	0	0	0	0	477	
6	0	0	0	0	480	
7	0	0	0	0	487	
8	0	0	0	0	498	
9	0	0	0	0	497	
10	0	0	0	0	490	
11	0	0	0	0	485	
12	0	0	0	0	481	
13	0	0	0	0	480	
14	0	0	0	0	479	
15	0	0	0	0	478	
0	0	0	0	0	471	
1	0	0	0	0	465	
2	0	0	0	0	465	
3	0	0	0	0	470	
4	0	0	0	0	470	
5	0	0	0	0	471	
6	0	0	0	0	474	
7	0	0	0	0	480	
8	0	0	0	0	490	
9	0	0	0	0	513	
10	0	0	0	0	537	
11	0	0	0	0	558	
12	0	0	0	0	519	
13	0	0	0	0	465	
14	0	0	0	0	438	
15	0	0	0	0	429	
0	0	0	0	0	426	
1	0	0	0	0	428	
2	0	0	0	0	422	
3	0	0	0	0	421	
4	0	0	0	0	423	
5	0	0	0	0	427	
6	0	0	0	0	430	
7	0	0	0	0	434	
8	0	0	0	0	437	
9	0	0	0	0	436	
10	0	0	0	0	430	
11	0	0	0	0	430	
12	0	0	0	0	433	
13	0	0	0	0	438	
14	0	0	0	0	439	
15	0	0	0	0	435	
0	0	0	0	0	433	
1	0	0	0	0	437	
2	0	0	0	0	448	
3	0	0	0	0	454	
4	0	0	0	0	463	
5	0	0	0	0	482	
6	0	0	0	0	502	
7	0	0	0	0	521	
8	0	0	0	0	505	
9	0	0	0	0	469	
10	0	0	0	0	444	
11	0	0	0	0	431	
12	0	0	0	0	432	
13	0	0	0	0	439	
14	0	0	0	0	446	
15	0	0	0	0	450	
0	0	0	0	0	446	
1	0	0	0	0	442	
2	0	0	0	0	445	
3	0	0	0	0	445	
4	0	0	0	0	444	
5	0	0	0	0	447	
6	0	0	0	0	449	
7	0	0	0	0	459	
8	0	0	0	0	461	
9	0	0	0	0	456	
10	0	0	0	0	457	
11	0	0	0	0	462	
12	0	0	0	0	464	
13	0	0	0	0	464	
14	0	0	0	0	462	
15	0	0	0	0	462	
0	0	0	0	0	466	
1	0	0	0	0	468	
2	0	0	0	0	476	
3	0	0	0	0	475	
4	0	0	0	0	473	
5	0	0	0	0	473	
6	0	0	0	0	467	
7	0	0	0	0	459	
8	0	0	0	0	460	
9	0	0	0	0	463	
10	0	0	0	0	463	
11	0	0	0	0	466	
12	0	0	0	0	463	
13	0	0	0	0	463	
14	0	0	0	0	460	
15	0	0	0	0	462	
0	0	0	0	0	463	
1	0	0	0	0	463	
2	0	0	0	0	468	
3	0	0	0	0	470	
4	0	0	0	0	473	
5	0	0	0	0	474	
6	0	0	0	0	474	
7	0	0	0	0	473	
8	0	0	0	0	472	
9	0	0	0	0	474	
10	0	0	0	0	476	
11	0	0	0	0	476	
12	0	0	0	0	476	
13	0	0	0	0	479	
14	0	0	0	0	475	
15	0	0	0	0	463	
0	0	0	0	0	459	
1	0	0	0	0	462	
2	0	0	0	0	465	
3	0	0	0	0	468	
4	0	0	0	0	470	
5	0	0	0	0	472	
6	0	0	0	0	474	
7	0	0	0	0	477	
8	0	0	0	0	475	
9	0	0	0	0	476	
10	0	0	0	0	475	
11	0	0	0	0	472	
12	0	0	0	0	471	
13	0	0	0	0	473	
14	0	0	0	0	476	
15	0	0	0	0	479	
0	0	0	0	0	487	
1	0	0	0	0	493	
2	0	0	0	0	493	
3	0	0	0	0	492	
4	0	0	0	0	495	
5	0	0	0	0	492	
6	0	0	0	0	491	
7	0	0	0	0	495	
8	0	0	0	0	499	
9	0	0	0	0	496	
10	0	0	0	0	493	
11	0	0	0	0	492	
12	0	0	0	0	495	
13	0	0	0	0	492	
14	0	0	0	0	488	
15	0	0	0	0	489	
0	0	0	0	0	494	
1	0	0	0	0	497	
2	0	0	0	0	496	
3	0	0	0	0	491	
4	0	0	0	0	486	
5	0	0	0	0	490	
6	0	0	0	0	495	
7	0	0	0	0	495	
8	0	0	0	0	491	
9	0	0	0	0	488	
10	0	0	0	0	488	
11	0	0	0	0	489	
12	0	0	0	0	491	
13	0	0	0	0	489	
14	0	0	0	0	489	
15	0	0	0	0	497	
0	0	0	0	0	504	
1	0	0	0	0	507	
2	0	0	0	0	509	
3	0	0	0	0	509	
4	0	0	0	0	505	
5	0	0	0	0	503	
6	0	0	0	0	503	
7	0	0	0	0	500	
8	0	0	0	0	499	
9	0	0	0	0	499	
10	0	0	0	0	497	
11	0	0	0	0	497	
12	0	0	0	0	497	
13	0	0	0	0	497	
14	0	0	0	0	497	
15	0	0	0	0	497	
0	0	0	0	0	497	
1	0	0	0	0	499	
2	0	0	0	0	501	
3	0	0	0	0	503	
4	0	0	0	0	505	
5	0	0	0	0	504	
6	0	0	0	0	501	
7	0	0	0	0	498	
8	0	0	0	0	493	
9	0	0	0	0	489	
10	0	0	0	0	488	
11	0	0	0	0	490	
12	0	0	0	0	494	
13	0	0	0	0	494	
14	0	0	0	0	495	
15	0	0	0	0	494	
0	0	0	0	0	496	
1	0	0	0	0	497	
2	0	0	0	0	495	
3	0	0	0	0	494	
4	0	0	0	0	493	
5	0	0	0	0	493	
6	0	0	0	0	497	
7	0	0	0	0	497	
8	0	0	0	0	496	
9	0	0	0	0	497	
10	0	0	0	0	499	
11	0	0	0	0	506	
12	0	0	0	0	514	
13	0	0	0	0	516	
14	0	0	0	0	514	
15	0	0	0	0	511	
0	0	0	0	0	514	
1	0	0	0	0	517	
2	0	0	0	0	517	
3	0	0	0	0	514	
4	0	0	0	0	512	
5	0	0	0	0	512	
6	0	0	0	0	513	
7	0	0	0	0	515	
8	0	0	0	0	517	
9	0	0	0	0	517	
10	0	0	0	0	521	
11	0	0	0	0	520	
12	0	0	0	0	522	
13	0	0	0	0	524	
14	0	0	0	0	521	
15	0	0	0	0	513	
0	0	0	0	0	501	
1	0	0	0	0	490	
2	0	0	0	0	487	
3	0	0	0	0	502	
4	0	0	0	0	523	
5	0	0	0	0	531	
6	0	0	0	0	538	
7	0	0	0	0	543	
8	0	0	0	0	544	
9	0	0	0	0	547	
10	0	0	0	0	565	
11	0	0	0	0	563	
12	0	0	0	0	543	
13	0	0	0	0	530	
14	0	0	0	0	525	
15	0	0	0	0	523	
0	0	0	0	0	512	
1	0	0	0	0	499	
2	0	0	0	0	492	
3	0	0	0	0	499	
4	0	0	0	0	515	
5	0	0	0	0	519	
6	0	0	0	0	515	
7	0	0	0	0	518	
8	0	0	0	0	523	
9	0	0	0	0	523	
10	0	0	0	0	532	
11	0	0	0	0	528	
12	0	0	0	0	507	
13	0	0	0	0	488	
14	0	0	0	0	476	
15	0	0	0	0	473	
0	0	0	0	0	488	
1	0	0	0	0	501	
2	0	0	0	0	498	
3	0	0	0	0	500	
4	0	0	0	0	504	
5	0	0	0	0	509	
6	0	0	0	0	492	
7	0	0	0	0	472	
8	0	0	0	0	476	
9	0	0	0	0	501	
10	0	0	0	0	531	
11	0	0	0	0	555	
12	0	0	0	0	557	
13	0	0	0	0	532	
14	0	0	0	0	492	
15	0	0	0	0	462	
0	0	0	0	0	452	
1	0	0	0	0	447	
2	0	0	0	0	450	
3	0	0	0	0	457	
4	0	0	0	0	469	
5	0	0	0	0	473	
6	0	0	0	0	465	
7	0	0	0	0	480	
8	0	0	0	0	487	
9	0	0	0	0	495	
10	0	0	0	0	515	
11	0	0	0	0	521	
12	0	0	0	0	489	
13	0	0	0	0	462	
14	0	0	0	0	458	
15	0	0	0	0	462	
0	0	0	0	0	468	
1	0	0	0	0	464	
2	0	0	0	0	457	
3	0	0	0	0	454	
4	0	0	0	0	463	
5	0	0	0	0	466	
6	0	0	0	0	470	
7	0	0	0	0	475	
8	0	0	0	0	481	
9	0	0	0	0	480	
10	0	0	0	0	479	
11	0	0	0	0	480	
12	0	0	0	0	484	
13	0	0	0	0	486	
14	0	0	0	0	490	
15	0	0	0	0	490	
0	0	0	0	0	491	
1	0	0	0	0	495	
2	0	0	0	0	499	
3	0	0	0	0	495	
4	0	0	0	0	492	
5	0	0	0	0	484	
6	0	0	0	0	474	
7	0	0	0	0	471	
8	0	0	0	0	468	
9	0	0	0	0	473	
10	0	0	0	0	480	
11	0	0	0	0	481	
12	0	0	0	0	483	
13	0	0	0	0	486	
14	0	0	0	0	483	
15	0	0	0	0	485	
0	0	0	0	0	496	
1	0	0	0	0	497	
2	0	0	0	0	496	
3	0	0	0	0	494	
4	0	0	0	0	497	
5	0	0	0	0	502	
6	0	0	0	0	503	
7	0	0	0	0	506	
8	0	0	0	0	505	
9	0	0	0	0	502	
10	0	0	0	0	499	
11	0	0	0	0	507	
12	0	0	0	0	525	
13	0	0	0	0	536	
14	0	0	0	0	542	
15	0	0	0	0	562	
0	0	0	0	0	580	
1	0	0	0	0	601	
2	0	0	0	0	627	
3	0	0	0	0	643	
4	0	0	0	0	655	
5	0	0	0	0	672	
6	0	0	0	0	686	
7	0	0	0	0	702	
8	0	0	0	0	718	
9	0	0	0	0	741	
10	0	0	0	0	753	
11	0	0	0	0	757	
12	0	0	0	0	768	
13	0	0	0	0	770	
14	0	0	0	0	766	
15	0	0	0	0	773	
0	0	0	0	0	764	
1	0	0	0	0	746	
2	0	0	0	0	738	
3	0	0	0	0	726	
4	0	0	0	0	705	
5	0	0	0	0	675	
6	0	0	0	0	637	
7	0	0	0	0	590	
8	0	0	0	0	551	
9	0	0	0	0	527	
10	0	0	0	0	504	
11	0	0	0	0	491	
12	0	0	0	0	487	
13	0	0	0	0	479	
14	0	0	0	0	441	
15	0	0	0	0	406	
0	0	0	0	0	374	
1	0	0	0	0	346	
2	0	0	0	0	320	
3	0	0	0	0	304	
4	0	0	0	0	305	
5	0	0	0	0	310	
6	0	0	0	0	312	
7	0	0	0	0	311	
8	0	0	0	0	287	
9	0	0	0	0	271	
10	0	0	0	0	293	
11	0	0	0	0	317	
12	0	0	0	0	332	
13	0	0	0	0	339	
14	0	0	0	0	345	
15	0	0	0	0	344	
0	0	0	0	0	340	
1	0	0	0	0	348	
2	0	0	0	0	373	
3	0	0	0	0	398	
4	0	0	0	0	413	
5	0	0	0	0	413	
6	0	0	0	0	415	
7	0	0	0	0	426	
8	0	0	0	0	433	
9	0	0	0	0	444	
10	0	0	0	0	453	
11	0	0	0	0	466	
12	0	0	0	0	479	
13	0	0	0	0	486	
14	0	0	0	0	483	
15	0	0	0	0	484	
0	0	0	0	0	490	
1	0	0	0	0	488	
2	0	0	0	0	485	
3	0	0	0	0	487	
4	0	0	0	0	491	
5	0	0	0	0	496	
6	0	0	0	0	498	
7	0	0	0	0	492	
8	0	0	0	0	488	
9	0	0	0	0	494	
10	0	0	0	0	502	
11	0	0	0	0	511	
12	0	0	0	0	512	
13	0	0	0	0	502	
14	0	0	0	0	479	
15	0	0	0	0	438	
0	0	0	0	0	415	
1	0	0	0	0	405	
2	0	0	0	0	419	
3	0	0	0	0	427	
4	0	0	0	0	423	
5	0	0	0	0	422	
6	0	0	0	0	439	
7	0	0	0	0	455	
8	0	0	0	0	476	
9	0	0	0	0	502	
10	0	0	0	0	518	
11	0	0	0	0	527	
12	0	0	0	0	530	
13	0	0	0	0	529	
14	0	0	0	0	529	
15	0	0	0	0	531	
0	0	0	0	0	535	
1	0	0	0	0	537	
2	0	0	0	0	536	
3	0	0	0	0	532	
4	0	0	0	0	526	
5	0	0	0	0	521	
6	0	0	0	0	519	
7	0	0	0	0	513	
8	0	0	0	0	502	
9	0	0	0	0	482	
10	0	0	0	0	474	
11	0	0	0	0	477	
12	0	0	0	0	478	
13	0	0	0	0	476	
14	0	0	0	0	459	
15	0	0	0	0	480	
0	0	0	0	0	505	
1	0	0	0	0	504	
2	0	0	0	0	497	
3	0	0	0	0	494	
4	0	0	0	0	503	
5	0	0	0	0	514	
6	0	0	0	0	514	
7	0	0	0	0	509	
8	0	0	0	0	506	
9	0	0	0	0	519	
10	0	0	0	0	542	
11	0	0	0	0	551	
12	0	0	0	0	545	
13	0	0	0	0	545	
14	0	0	0	0	544	
15	0	0	0	0	543	
0	0	0	0	0	540	
1	0	0	0	0	537	
2	0	0	0	0	536	
3	0	0	0	0	535	
4	0	0	0	0	541	
5	0	0	0	0	543	
6	0	0	0	0	541	
7	0	0	0	0	533	
8	0	0	0	0	533	
9	0	0	0	0	538	
10	0	0	0	0	543	
11	0	0	0	0	552	
12	0	0	0	0	561	
13	0	0	0	0	579	
14	0	0	0	0	584	
15	0	0	0	0	586	
0	0	0	0	0	550	
1	0	0	0	0	517	
2	0	0	0	0	510	
3	0	0	0	0	518	
4	0	0	0	0	522	
5	0	0	0	0	528	
6	0	0	0	0	529	
7	0	0	0	0	538	
8	0	0	0	0	556	
9	0	0	0	0	584	
10	0	0	0	0	600	
11	0	0	0	0	605	
12	0	0	0	0	593	
13	0	0	0	0	552	
14	0	0	0	0	517	
15	0	0	0	0	518	
0	0	0	0	0	511	
1	0	0	0	0	519	
2	0	0	0	0	516	
3	0	0	0	0	519	
4	0	0	0	0	510	
5	0	0	0	0	508	
6	0	0	0	0	519	
7	0	0	0	0	536	
8	0	0	0	0	562	
9	0	0	0	0	574	
10	0	0	0	0	559	
11	0	0	0	0	533	
12	0	0	0	0	524	
13	0	0	0	0	531	
14	0	0	0	0	539	
15	0	0	0	0	529	
0	0	0	0	0	521	
1	0	0	0	0	518	
2	0	0	0	0	522	
3	0	0	0	0	527	
4	0	0	0	0	525	
5	0	0	0	0	522	
6	0	0	0	0	523	
7	0	0	0	0	524	
8	0	0	0	0	521	
9	0	0	0	0	517	
10	0	0	0	0	526	
11	0	0	0	0	524	
12	0	0	0	0	521	
13	0	0	0	0	537	
14	0	0	0	0	556	
15	0	0	0	0	564	
0	0	0	0	0	561	
1	0	0	0	0	553	
2	0	0	0	0	547	
3	0	0	0	0	540	
4	0	0	0	0	543	
5	0	0	0	0	551	
6	0	0	0	0	547	
7	0	0	0	0	532	
8	0	0	0	0	523	
9	0	0	0	0	517	
10	0	0	0	0	523	
11	0	0	0	0	536	
12	0	0	0	0	552	
13	0	0	0	0	558	
14	0	0	0	0	564	
15	0	0	0	0	575	
0	0	0	0	0	576	
1	0	0	0	0	579	
2	0	0	0	0	579	
3	0	0	0	0	580	
4	0	0	0	0	584	
5	0	0	0	0	573	
6	0	0	0	0	555	
7	0	0	0	0	538	
8	0	0	0	0	510	
9	0	0	0	0	484	
10	0	0	0	0	466	
11	0	0	0	0	449	
12	0	0	0	0	426	
13	0	0	0	0	405	
14	0	0	0	0	415	
15	0	0	0	0	464	
0	0	0	0	0	519	
1	0	0	0	0	567	
2	0	0	0	0	620	
3	0	0	0	0	655	
4	0	0	0	0	651	
5	0	0	0	0	642	
6	0	0	0	0	644	
7	0	0	0	0	636	
8	0	0	0	0	619	
9	0	0	0	0	601	
10	0	0	0	0	585	
11	0	0	0	0	587	
12	0	0	0	0	601	
13	0	0	0	0	601	
14	0	0	0	0	590	
15	0	0	0	0	572	
0	0	0	0	0	564	
1	0	0	0	0	567	
2	0	0	0	0	566	
3	0	0	0	0	564	
4	0	0	0	0	562	
5	0	0	0	0	555	
6	0	0	0	0	555	
7	0	0	0	0	566	
8	0	0	0	0	567	
9	0	0	0	0	554	
10	0	0	0	0	546	
11	0	0	0	0	552	
12	0	0	0	0	575	
13	0	0	0	0	594	
14	0	0	0	0	602	
15	0	0	0	0	569	
0	0	0	0	0	527	
1	0	0	0	0	527	
2	0	0	0	0	563	
3	0	0	0	0	571	
4	0	0	0	0	552	
5	0	0	0	0	531	
6	0	0	0	0	530	
7	0	0	0	0	530	
8	0	0	0	0	508	
9	0	0	0	0	495	
10	0	0	0	0	484	
11	0	0	0	0	487	
12	0	0	0	0	496	
13	0	0	0	0	500	
14	0	0	0	0	499	
15	0	0	0	0	503	
0	0	0	0	0	510	
1	0	0	0	0	515	
2	0	0	0	0	516	
3	0	0	0	0	507	
4	0	0	0	0	502	
5	0	0	0	0	503	
6	0	0	0	0	494	
7	0	0	0	0	479	
8	0	0	0	0	474	
9	0	0	0	0	475	
10	0	0	0	0	483	
11	0	0	0	0	483	
12	0	0	0	0	473	
13	0	0	0	0	472	
14	0	0	0	0	480	
15	0	0	0	0	480	
0	0	0	0	0	466	
1	0	0	0	0	444	
2	0	0	0	0	431	
3	0	0	0	0	432	
4	0	0	0	0	439	
5	0	0	0	0	452	
6	0	0	0	0	464	
7	0	0	0	0	480	
8	0	0	0	0	494	
9	0	0	0	0	503	
10	0	0	0	0	507	
11	0	0	0	0	507	
12	0	0	0	0	501	
13	0	0	0	0	498	
14	0	0	0	0	486	
15	0	0	0	0	465	
0	0	0	0	0	444	
1	0	0	0	0	426	
2	0	0	0	0	417	
3	0	0	0	0	416	
4	0	0	0	0	419	
5	0	0	0	0	412	
6	0	0	0	0	423	
7	0	0	0	0	441	
8	0	0	0	0	442	
9	0	0	0	0	424	
10	0	0	0	0	418	
11	0	0	0	0	422	
12	0	0	0	0	422	
13	0	0	0	0	419	
14	0	0	0	0	420	
15	0	0	0	0	419	
0	0	0	0	0	435	
1	0	0	0	0	451	
2	0	0	0	0	469	
3	0	0	0	0	481	
4	0	0	0	0	491	
5	0	0	0	0	487	
6	0	0	0	0	482	
7	0	0	0	0	476	
8	0	0	0	0	469	
9	0	0	0	0	466	
10	0	0	0	0	466	
11	0	0	0	0	472	
12	0	0	0	0	480	
13	0	0	0	0	485	
14	0	0	0	0	495	
15	0	0	0	0	505	
0	0	0	0	0	505	
1	0	0	0	0	499	
2	0	0	0	0	485	
3	0	0	0	0	484	
4	0	0	0	0	484	
5	0	0	0	0	475	
6	0	0	0	0	460	
7	0	0	0	0	443	
8	0	0	0	0	440	
9	0	0	0	0	433	
10	0	0	0	0	431	
11	0	0	0	0	427	
12	0	0	0	0	427	
13	0	0	0	0	440	
14	0	0	0	0	447	
15	0	0	0	0	457	
0	0	0	0	0	477	
1	0	0	0	0	496	
2	0	0	0	0	510	
3	0	0	0	0	519	
4	0	0	0	0	529	
5	0	0	0	0	536	
6	0	0	0	0	538	
7	0	0	0	0	531	
8	0	0	0	0	527	
9	0	0	0	0	526	
10	0	0	0	0	528	
11	0	0	0	0	527	
12	0	0	0	0	525	
13	0	0	0	0	521	
14	0	0	0	0	516	
15	0	0	0	0	512	
0	0	0	0	0	502	
1	0	0	0	0	494	
2	0	0	0	0	487	
3	0	0	0	0	484	
4	0	0	0	0	480	
5	0	0	0	0	479	
6	0	0	0	0	476	
7	0	0	0	0	473	
8	0	0	0	0	477	
9	0	0	0	0	478	
10	0	0	0	0	480	
11	0	0	0	0	493	
12	0	0	0	0	506	
13	0	0	0	0	513	
14	0	0	0	0	515	
15	0	0	0	0	514	
0	0	0	0	0	513	
1	0	0	0	0	512	
2	0	0	0	0	512	
3	0	0	0	0	510	
4	0	0	0	0	505	
5	0	0	0	0	507	
6	0	0	0	0	504	
7	0	0	0	0	500	
8	0	0	0	0	498	
9	0	0	0	0	493	
10	0	0	0	0	496	
11	0	0	0	0	498	
12	0	0	0	0	504	
13	0	0	0	0	512	
14	0	0	0	0	518	
15	0	0	0	0	519	
0	0	0	0	0	512	
1	0	0	0	0	507	
2	0	0	0	0	509	
3	0	0	0	0	515	
4	0	0	0	0	511	
5	0	0	0	0	505	
6	0	0	0	0	503	
7	0	0	0	0	499	
8	0	0	0	0	501	
9	0	0	0	0	506	
10	0	0	0	0	511	
11	0	0	0	0	515	
12	0	0	0	0	515	
13	0	0	0	0	515	
14	0	0	0	0	513	
15	0	0	0	0	513	
0	0	0	0	0	512	
1	0	0	0	0	511	
2	0	0	0	0	508	
3	0	0	0	0	509	
4	0	0	0	0	513	
5	0	0	0	0	517	
6	0	0	0	0	519	
7	0	0	0	0	515	
8	0	0	0	0	515	
9	0	0	0	0	512	
10	0	0	0	0	512	
11	0	0	0	0	513	
12	0	0	0	0	510	
13	0	0	0	0	512	
14	0	0	0	0	516	
15	0	0	0	0	519	
0	0	0	0	0	518	
1	0	0	0	0	519	
2	0	0	0	0	522	
3	0	0	0	0	524	
4	0	0	0	0	519	
5	0	0	0	0	513	
6	0	0	0	0	511	
7	0	0	0	0	512	
8	0	0	0	0	515	
9	0	0	0	0	518	
10	0	0	0	0	519	
11	0	0	0	0	520	
12	0	0	0	0	522	
13	0	0	0	0	519	
14	0	0	0	0	513	
15	0	0	0	0	511	
0	0	0	0	0	512	
1	0	0	0	0	513	
2	0	0	0	0	515	
3	0	0	0	0	515	
4	0	0	0	0	513	
5	0	0	0	0	513	
6	0	0	0	0	516	
7	0	0	0	0	518	
8	0	0	0	0	521	
9	0	0	0	0	519	
10	0	0	0	0	516	
11	0	0	0	0	514	
12	0	0	0	0	515	
13	0	0	0	0	515	
14	0	0	0	0	519	
15	0	0	0	0	520	
0	0	0	0	0	521	
1	0	0	0	0	527	
2	0	0	0	0	531	
3	0	0	0	0	531	
4	0	0	0	0	526	
5	0	0	0	0	527	
6	0	0	0	0	532	
7	0	0	0	0	534	
8	0	0	0	0	536	
9	0	0	0	0	537	
10	0	0	0	0	537	
11	0	0	0	0	537	
12	0	0	0	0	537	
13	0	0	0	0	537	
14	0	0	0	0	533	
15	0	0	0	0	532	
0	0	0	0	0	530	
1	0	0	0	0	531	
2	0	0	0	0	537	
3	0	0	0	0	543	
4	0	0	0	0	546	
5	0	0	0	0	545	
6	0	0	0	0	543	
7	0	0	0	0	538	
8	0	0	0	0	536	
9	0	0	0	0	535	
10	0	0	0	0	535	
11	0	0	0	0	537	
12	0	0	0	0	540	
13	0	0	0	0	543	
14	0	0	0	0	544	
15	0	0	0	0	543	
0	0	0	0	0	543	
1	0	0	0	0	543	
2	0	0	0	0	543	
3	0	0	0	0	540	
4	0	0	0	0	538	
5	0	0	0	0	535	
6	0	0	0	0	529	
7	0	0	0	0	526	
8	0	0	0	0	523	
9	0	0	0	0	521	
10	0	0	0	0	519	
11	0	0	0	0	519	
12	0	0	0	0	518	
13	0	0	0	0	518	
14	0	0	0	0	515	
15	0	0	0	0	513	
0	0	0	0	0	511	
1	0	0	0	0	511	
2	0	0	0	0	511	
3	0	0	0	0	512	
4	0	0	0	0	514	
5	0	0	0	0	513	
6	0	0	0	0	511	
7	0	0	0	0	509	
8	0	0	0	0	508	
9	0	0	0	0	507	
10	0	0	0	0	504	
11	0	0	0	0	501	
12	0	0	0	0	501	
13	0	0	0	0	500	
14	0	0	0	0	501	
15	0	0	0	0	500	
0	0	0	0	0	501	
1	0	0	0	0	501	
2	0	0	0	0	502	
3	0	0	0	0	501	
4	0	0	0	0	500	
5	0	0	0	0	498	
6	0	0	0	0	496	
7	0	0	0	0	496	
8	0	0	0	0	498	
9	0	0	0	0	503	
10	0	0	0	0	510	
11	0	0	0	0	515	
12	0	0	0	0	520	
13	0	0	0	0	517	
14	0	0	0	0	513	
15	0	0	0	0	507	
0	0	0	0	0	503	
1	0	0	0	0	504	
2	0	0	0	0	504	
3	0	0	0	0	505	
4	0	0	0	0	506	
5	0	0	0	0	509	
6	0	0	0	0	513	
7	0	0	0	0	515	
8	0	0	0	0	512	
9	0	0	0	0	508	
10	0	0	0	0	505	
11	0	0	0	0	504	
12	0	0	0	0	505	
13	0	0	0	0	503	
14	0	0	0	0	504	
15	0	0	0	0	504	
0	0	0	0	0	502	
1	0	0	0	0	500	
2	0	0	0	0	499	
3	0	0	0	0	499	
4	0	0	0	0	500	
5	0	0	0	0	503	
6	0	0	0	0	505	
7	0	0	0	0	504	
8	0	0	0	0	502	
9	0	0	0	0	502	
10	0	0	0	0	505	
11	0	0	0	0	505	
12	0	0	0	0	505	
13	0	0	0	0	505	
14	0	0	0	0	505	
15	0	0	0	0	506	
0	0	0	0	0	510	
1	0	0	0	0	511	
2	0	0	0	0	508	
3	0	0	0	0	504	
4	0	0	0	0	502	
5	0	0	0	0	502	
6	0	0	0	0	504	
7	0	0	0	0	501	
8	0	0	0	0	496	
9	0	0	0	0	490	
10	0	0	0	0	487	
11	0	0	0	0	487	
12	0	0	0	0	487	
13	0	0	0	0	491	
14	0	0	0	0	497	
15	0	0	0	0	503	
0	0	0	0	0	510	
1	0	0	0	0	520	
2	0	0	0	0	531	
3	0	0	0	0	543	
4	0	0	0	0	558	
5	0	0	0	0	571	
6	0	0	0	0	589	
7	0	0	0	0	604	
8	0	0	0	0	623	
9	0	0	0	0	641	
10	0	0	0	0	659	
11	0	0	0	0	670	
12	0	0	0	0	682	
13	0	0	0	0	693	
14	0	0	0	0	705	
15	0	0	0	0	720	
0	0	0	0	0	736	
1	0	0	0	0	750	
2	0	0	0	0	761	
3	0	0	0	0	767	
4	0	0	0	0	769	
5	0	0	0	0	768	
6	0	0	0	0	761	
7	0	0	0	0	750	
8	0	0	0	0	732	
9	0	0	0	0	710	
10	0	0	0	0	686	
11	0	0	0	0	663	
12	0	0	0	0	635	
13	0	0	0	0	598	
14	0	0	0	0	557	
15	0	0	0	0	511	
0	0	0	0	0	459	
1	0	0	0	0	408	
2	0	0	0	0	370	
3	0	0	0	0	346	
4	0	0	0	0	327	
5	0	0	0	0	308	
6	0	0	0	0	292	
7	0	0	0	0	281	
8	0	0	0	0	275	
9	0	0	0	0	271	
10	0	0	0	0	269	
11	0	0	0	0	269	
12	0	0	0	0	270	
13	0	0	0	0	273	
14	0	0	0	0	274	
15	0	0	0	0	275	
0	0	0	0	0	279	
1	0	0	0	0	285	
2	0	0	0	0	294	
3	0	0	0	0	304	
4	0	0	0	0	316	
5	0	0	0	0	325	
6	0	0	0	0	335	
7	0	0	0	0	348	
8	0	0	0	0	364	
9	0	0	0	0	380	
10	0	0	0	0	391	
11	0	0	0	0	403	
12	0	0	0	0	414	
13	0	0	0	0	428	
14	0	0	0	0	440	
15	0	0	0	0	447	
0	0	0	0	0	454	
1	0	0	0	0	460	
2	0	0	0	0	467	
3	0	0	0	0	473	
4	0	0	0	0	477	
5	0	0	0	0	481	
6	0	0	0	0	486	
7	0	0	0	0	490	
8	0	0	0	0	494	
9	0	0	0	0	496	
10	0	0	0	0	496	
11	0	0	0	0	496	
12	0	0	0	0	501	
13	0	0	0	0	504	
14	0	0	0	0	504	
15	0	0	0	0	506	
0	0	0	0	0	509	
1	0	0	0	0	508	
2	0	0	0	0	508	
3	0	0	0	0	507	
4	0	0	0	0	507	
5	0	0	0	0	505	
6	0	0	0	0	504	
7	0	0	0	0	505	
8	0	0	0	0	505	
9	0	0	0	0	504	
10	0	0	0	0	504	
11	0	0	0	0	505	
12	0	0	0	0	508	
13	0	0	0	0	508	
14	0	0	0	0	507	
15	0	0	0	0	508	
0	0	0	0	0	509	
1	0	0	0	0	509	
2	0	0	0	0	513	
3	0	0	0	0	517	
4	0	0	0	0	514	
5	0	0	0	0	509	
6	0	0	0	0	509	
7	0	0	0	0	508	
8	0	0	0	0	511	
9	0	0	0	0	514	
10	0	0	0	0	514	
11	0	0	0	0	514	
12	0	0	0	0	516	
13	0	0	0	0	517	
14	0	0	0	0	512	
15	0	0	0	0	506	
0	0	0	0	0	504	
1	0	0	0	0	503	
2	0	0	0	0	505	
3	0	0	0	0	507	
4	0	0	0	0	509	
5	0	0	0	0	510	
6	0	0	0	0	507	
7	0	0	0	0	507	
8	0	0	0	0	505	
9	0	0	0	0	503	
10	0	0	0	0	504	
11	0	0	0	0	504	
12	0	0	0	0	505	
13	0	0	0	0	507	
14	0	0	0	0	510	
15	0	0	0	0	512	
0	0	0	0	0	508	
1	0	0	0	0	506	
2	0	0	0	0	507	
3	0	0	0	0	513	
4	0	0	0	0	518	
5	0	0	0	0	518	
6	0	0	0	0	516	
7	0	0	0	0	518	
8	0	0	0	0	519	
9	0	0	0	0	518	
10	0	0	0	0	521	
11	0	0	0	0	524	
12	0	0	0	0	526	
13	0	0	0	0	525	
14	0	0	0	0	524	
15	0	0	0	0	521	
0	0	0	0	0	521	
1	0	0	0	0	523	
2	0	0	0	0	528	
3	0	0	0	0	531	
4	0	0	0	0	529	
5	0	0	0	0	524	
6	0	0	0	0	522	
7	0	0	0	0	519	
8	0	0	0	0	519	
9	0	0	0	0	518	
10	0	0	0	0	516	
11	0	0	0	0	517	
12	0	0	0	0	519	
13	0	0	0	0	519	
14	0	0	0	0	518	
15	0	0	0	0	518	
0	0	0	0	0	520	
1	0	0	0	0	519	
2	0	0	0	0	518	
3	0	0	0	0	517	
4	0	0	0	0	521	
5	0	0	0	0	522	
6	0	0	0	0	523	
7	0	0	0	0	522	
8	0	0	0	0	526	
9	0	0	0	0	533	
10	0	0	0	0	536	
11	0	0	0	0	537	
12	0	0	0	0	536	
13	0	0	0	0	534	
14	0	0	0	0	532	
15	0	0	0	0	531	
0	0	0	0	0	532	
1	0	0	0	0	535	
2	0	0	0	0	535	
3	0	0	0	0	533	
4	0	0	0	0	531	
5	0	0	0	0	530	
6	0	0	0	0	532	
7	0	0	0	0	536	
8	0	0	0	0	541	
9	0	0	0	0	546	
10	0	0	0	0	546	
11	0	0	0	0	545	
12	0	0	0	0	546	
13	0	0	0	0	548	
14	0	0	0	0	550	
15	0	0	0	0	551	
0	0	0	0	0	551	
1	0	0	0	0	547	
2	0	0	0	0	545	
3	0	0	0	0	547	
4	0	0	0	0	551	
5	0	0	0	0	556	
6	0	0	0	0	558	
7	0	0	0	0	559	
8	0	0	0	0	559	
9	0	0	0	0	562	
10	0	0	0	0	568	
11	0	0	0	0	570	
12	0	0	0	0	567	
13	0	0	0	0	568	
14	0	0	0	0	567	
15	0	0	0	0	568	
0	0	0	0	0	570	
1	0	0	0	0	573	
2	0	0	0	0	571	
3	0	0	0	0	571	
4	0	0	0	0	577	
5	0	0	0	0	582	
6	0	0	0	0	580	
7	0	0	0	0	583	
8	0	0	0	0	581	
9	0	0	0	0	571	
10	0	0	0	0	559	
11	0	0	0	0	554	
12	0	0	0	0	551	
13	0	0	0	0	552	
14	0	0	0	0	552	
15	0	0	0	0	555	
0	0	0	0	0	563	
1	0	0	0	0	569	
2	0	0	0	0	571	
3	0	0	0	0	571	
4	0	0	0	0	569	
5	0	0	0	0	566	
6	0	0	0	0	564	
7	0	0	0	0	567	
8	0	0	0	0	572	
9	0	0	0	0	571	
10	0	0	0	0	566	
11	0	0	0	0	567	
12	0	0	0	0	568	
13	0	0	0	0	563	
14	0	0	0	0	561	
15	0	0	0	0	561	
0	0	0	0	0	558	
1	0	0	0	0	548	
2	0	0	0	0	544	
3	0	0	0	0	540	
4	0	0	0	0	537	
5	0	0	0	0	535	
6	0	0	0	0	535	
7	0	0	0	0	540	
8	0	0	0	0	539	
9	0	0	0	0	537	
10	0	0	0	0	537	
11	0	0	0	0	537	
12	0	0	0	0	540	
13	0	0	0	0	539	
14	0	0	0	0	535	
15	0	0	0	0	532	
0	0	0	0	0	530	
1	0	0	0	0	524	
2	0	0	0	0	524	
3	0	0	0	0	524	
4	0	0	0	0	517	
5	0	0	0	0	512	
6	0	0	0	0	508	
7	0	0	0	0	502	
8	0	0	0	0	494	
9	0	0	0	0	491	
10	0	0	0	0	488	
11	0	0	0	0	489	
12	0	0	0	0	491	
13	0	0	0	0	492	
14	0	0	0	0	492	
15	0	0	0	0	492	
0	0	0	0	0	493	
1	0	0	0	0	493	
2	0	0	0	0	493	
3	0	0	0	0	496	
4	0	0	0	0	495	
5	0	0	0	0	496	
6	0	0	0	0	494	
7	0	0	0	0	499	
8	0	0	0	0	497	
9	0	0	0	0	487	
10	0	0	0	0	476	
11	0	0	0	0	475	
12	0	0	0	0	471	
13	0	0	0	0	467	
14	0	0	0	0	464	
15	0	0	0	0	463	
0	0	0	0	0	460	
1	0	0	0	0	460	
2	0	0	0	0	459	
3	0	0	0	0	460	
4	0	0	0	0	462	
5	0	0	0	0	464	
6	0	0	0	0	465	
7	0	0	0	0	463	
8	0	0	0	0	462	
9	0	0	0	0	460	
10	0	0	0	0	458	
11	0	0	0	0	459	
12	0	0	0	0	461	
13	0	0	0	0	461	
14	0	0	0	0	461	
15	0	0	0	0	463	
0	0	0	0	0	466	
1	0	0	0	0	467	
2	0	0	0	0	463	
3	0	0	0	0	457	
4	0	0	0	0	452	
5	0	0	0	0	448	
6	0	0	0	0	449	
7	0	0	0	0	450	
8	0	0	0	0	455	
9	0	0	0	0	457	
10	0	0	0	0	460	
11	0	0	0	0	462	
12	0	0	0	0	461	
13	0	0	0	0	461	
14	0	0	0	0	459	
15	0	0	0	0	456	
0	0	0	0	0	457	
1	0	0	0	0	458	
2	0	0	0	0	460	
3	0	0	0	0	463	
4	0	0	0	0	463	
5	0	0	0	0	465	
6	0	0	0	0	471	
7	0	0	0	0	470	
8	0	0	0	0	472	
9	0	0	0	0	472	
10	0	0	0	0	477	
11	0	0	0	0	481	
12	0	0	0	0	469	
13	0	0	0	0	454	
14	0	0	0	0	449	
15	0	0	0	0	452	
0	0	0	0	0	455	
1	0	0	0	0	460	
2	0	0	0	0	467	
3	0	0	0	0	468	
4	0	0	0	0	470	
5	0	0	0	0	473	
6	0	0	0	0	474	
7	0	0	0	0	472	
8	0	0	0	0	472	
9	0	0	0	0	473	
10	0	0	0	0	473	
11	0	0	0	0	475	
12	0	0	0	0	476	
13	0	0	0	0	478	
14	0	0	0	0	480	
15	0	0	0	0	480	
0	0	0	0	0	480	
1	0	0	0	0	478	
2	0	0	0	0	474	
3	0	0	0	0	474	
4	0	0	0	0	470	
5	0	0	0	0	465	
6	0	0	0	0	464	
7	0	0	0	0	470	
8	0	0	0	0	476	
9	0	0	0	0	482	
10	0	0	0	0	483	
11	0	0	0	0	482	
12	0	0	0	0	484	
13	0	0	0	0	487	
14	0	0	0	0	487	
15	0	0	0	0	487	
0	0	0	0	0	484	
1	0	0	0	0	481	
2	0	0	0	0	483	
3	0	0	0	0	484	
4	0	0	0	0	488	
5	0	0	0	0	489	
6	0	0	0	0	486	
7	0	0	0	0	484	
8	0	0	0	0	486	
9	0	0	0	0	487	
10	0	0	0	0	489	
11	0	0	0	0	484	
12	0	0	0	0	483	
13	0	0	0	0	481	
14	0	0	0	0	485	
15	0	0	0	0	489	
0	0	0	0	0	491	
1	0	0	0	0	494	
2	0	0	0	0	492	
3	0	0	0	0	491	
4	0	0	0	0	494	
5	0	0	0	0	488	
6	0	0	0	0	480	
7	0	0	0	0	476	
8	0	0	0	0	480	
9	0	0	0	0	487	
10	0	0	0	0	488	
11	0	0	0	0	485	
12	0	0	0	0	481	
13	0	0	0	0	483	
14	0	0	0	0	483	
15	0	0	0	0	486	
0	0	0	0	0	484	
1	0	0	0	0	484	
2	0	0	0	0	495	
3	0	0	0	0	500	
4	0	0	0	0	502	
5	0	0	0	0	500	
6	0	0	0	0	497	
7	0	0	0	0	498	
8	0	0	0	0	498	
9	0	0	0	0	495	
10	0	0	0	0	490	
11	0	0	0	0	488	
12	0	0	0	0	489	
13	0	0	0	0	491	
14	0	0	0	0	488	
15	0	0	0	0	489	
0	0	0	0	0	494	
1	0	0	0	0	497	
2	0	0	0	0	499	
3	0	0	0	0	504	
4	0	0	0	0	505	
5	0	0	0	0	505	
6	0	0	0	0	505	
7	0	0	0	0	502	
8	0	0	0	0	500	
9	0	0	0	0	499	
10	0	0	0	0	495	
11	0	0	0	0	497	
12	0	0	0	0	509	
13	0	0	0	0	508	
14	0	0	0	0	500	
15	0	0	0	0	499	
0	0	0	0	0	500	
1	0	0	0	0	501	
2	0	0	0	0	497	
3	0	0	0	0	497	
4	0	0	0	0	495	
5	0	0	0	0	495	
6	0	0	0	0	488	
7	0	0	0	0	489	
8	0	0	0	0	499	
9	0	0	0	0	498	
10	0	0	0	0	497	
11	0	0	0	0	491	
12	0	0	0	0	491	
13	0	0	0	0	496	
14	0	0	0	0	499	
15	0	0	0	0	500	
0	0	0	0	0	501	
1	0	0	0	0	500	
2	0	0	0	0	502	
3	0	0	0	0	502	
4	0	0	0	0	498	
5	0	0	0	0	496	
6	0	0	0	0	495	
7	0	0	0	0	497	
8	0	0	0	0	497	
9	0	0	0	0	494	
10	0	0	0	0	492	
11	0	0	0	0	491	
12	0	0	0	0	494	
13	0	0	0	0	493	
14	0	0	0	0	496	
15	0	0	0	0	497	
0	0	0	0	0	498	
1	0	0	0	0	500	
2	0	0	0	0	499	
3	0	0	0	0	496	
4	0	0	0	0	496	
5	0	0	0	0	498	
6	0	0	0	0	500	
7	0	0	0	0	507	
8	0	0	0	0	511	
9	0	0	0	0	512	
10	0	0	0	0	510	
11	0	0	0	0	508	
12	0	0	0	0	512	
13	0	0	0	0	512	
14	0	0	0	0	516	
15	0	0	0	0	519	
0	0	0	0	0	521	
1	0	0	0	0	520	
2	0	0	0	0	519	
3	0	0	0	0	515	
4	0	0	0	0	515	
5	0	0	0	0	518	
6	0	0	0	0	519	
7	0	0	0	0	515	
8	0	0	0	0	509	
9	0	0	0	0	505	
10	0	0	0	0	505	
11	0	0	0	0	507	
12	0	0	0	0	509	
13	0	0	0	0	512	
14	0	0	0	0	513	
15	0	0	0	0	517	
0	0	0	0	0	513	
1	0	0	0	0	505	
2	0	0	0	0	493	
3	0	0	0	0	493	
4	0	0	0	0	499	
5	0	0	0	0	504	
6	0	0	0	0	503	
7	0	0	0	0	503	
8	0	0	0	0	503	
9	0	0	0	0	505	
10	0	0	0	0	503	
11	0	0	0	0	498	
12	0	0	0	0	494	
13	0	0	0	0	492	
14	0	0	0	0	488	
15	0	0	0	0	487	
0	0	0	0	0	486	
1	0	0	0	0	487	
2	0	0	0	0	487	
3	0	0	0	0	487	
4	0	0	0	0	484	
5	0	0	0	0	483	
6	0	0	0	0	482	
7	0	0	0	0	483	
8	0	0	0	0	487	
9	0	0	0	0	491	
10	0	0	0	0	495	
11	0	0	0	0	498	
12	0	0	0	0	499	
13	0	0	0	0	497	
14	0	0	0	0	485	
15	0	0	0	0	476	
0	0	0	0	0	476	
1	0	0	0	0	483	
2	0	0	0	0	487	
3	0	0	0	0	492	
4	0	0	0	0	497	
5	0	0	0	0	495	
6	0	0	0	0	493	
7	0	0	0	0	488	
8	0	0	0	0	482	
9	0	0	0	0	479	
10	0	0	0	0	480	
11	0	0	0	0	483	
12	0	0	0	0	486	
13	0	0	0	0	488	
14	0	0	0	0	491	
15	0	0	0	0	491	
0	0	0	0	0	489	
1	0	0	0	0	487	
2	0	0	0	0	487	
3	0	0	0	0	487	
4	0	0	0	0	486	
5	0	0	0	0	488	
6	0	0	0	0	491	
7	0	0	0	0	493	
8	0	0	0	0	499	
9	0	0	0	0	496	
10	0	0	0	0	487	
11	0	0	0	0	484	
12	0	0	0	0	487	
13	0	0	0	0	489	
14	0	0	0	0	492	
15	0	0	0	0	495	
0	0	0	0	0	495	
1	0	0	0	0	494	
2	0	0	0	0	496	
3	0	0	0	0	494	
4	0	0	0	0	487	
5	0	0	0	0	488	
6	0	0	0	0	492	
7	0	0	0	0	497	
8	0	0	0	0	501	
9	0	0	0	0	503	
10	0	0	0	0	504	
11	0	0	0	0	501	
12	0	0	0	0	501	
13	0	0	0	0	504	
14	0	0	0	0	499	
15	0	0	0	0	497	
0	0	0	0	0	499	
1	0	0	0	0	502	
2	0	0	0	0	506	
3	0	0	0	0	505	
4	0	0	0	0	499	
5	0	0	0	0	494	
6	0	0	0	0	488	
7	0	0	0	0	488	
8	0	0	0	0	490	
9	0	0	0	0	491	
10	0	0	0	0	499	
11	0	0	0	0	508	
12	0	0	0	0	521	
13	0	0	0	0	531	
14	0	0	0	0	539	
15	0	0	0	0	549	
0	0	0	0	0	559	
1	0	0	0	0	564	
2	0	0	0	0	575	
3	0	0	0	0	593	
4	0	0	0	0	616	
5	0	0	0	0	640	
6	0	0	0	0	667	
7	0	0	0	0	679	
8	0	0	0	0	678	
9	0	0	0	0	675	
10	0	0	0	0	686	
11	0	0	0	0	687	
12	0	0	0	0	700	
13	0	0	0	0	723	
14	0	0	0	0	747	
15	0	0	0	0	761	
0	0	0	0	0	764	
1	0	0	0	0	762	
2	0	0	0	0	759	
3	0	0	0	0	748	
4	0	0	0	0	734	
5	0	0	0	0	714	
6	0	0	0	0	694	
7	0	0	0	0	669	
8	0	0	0	0	643	
9	0	0	0	0	615	
10	0	0	0	0	584	
11	0	0	0	0	547	
12	0	0	0	0	502	
13	0	0	0	0	459	
14	0	0	0	0	411	
15	0	0	0	0	361	
0	0	0	0	0	331	
1	0	0	0	0	330	
2	0	0	0	0	329	
3	0	0	0	0	319	
4	0	0	0	0	313	
5	0	0	0	0	310	
6	0	0	0	0	304	
7	0	0	0	0	304	
8	0	0	0	0	302	
9	0	0	0	0	297	
10	0	0	0	0	297	
11	0	0	0	0	301	
12	0	0	0	0	303	
13	0	0	0	0	307	
14	0	0	0	0	312	
15	0	0	0	0	320	
0	0	0	0	0	332	
1	0	0	0	0	344	
2	0	0	0	0	362	
3	0	0	0	0	376	
4	0	0	0	0	393	
5	0	0	0	0	409	
6	0	0	0	0	419	
7	0	0	0	0	431	
8	0	0	0	0	445	
9	0	0	0	0	443	
10	0	0	0	0	446	
11	0	0	0	0	448	
12	0	0	0	0	445	
13	0	0	0	0	448	
14	0	0	0	0	448	
15	0	0	0	0	451	
0	0	0	0	0	454	
1	0	0	0	0	461	
2	0	0	0	0	473	
3	0	0	0	0	487	
4	0	0	0	0	499	
5	0	0	0	0	510	
6	0	0	0	0	521	
7	0	0	0	0	527	
8	0	0	0	0	525	
9	0	0	0	0	524	
10	0	0	0	0	521	
11	0	0	0	0	522	
12	0	0	0	0	524	
13	0	0	0	0	522	
14	0	0	0	0	515	
15	0	0	0	0	519	
0	0	0	0	0	523	
1	0	0	0	0	512	
2	0	0	0	0	495	
3	0	0	0	0	496	
4	0	0	0	0	490	
5	0	0	0	0	485	
6	0	0	0	0	485	
7	0	0	0	0	489	
8	0	0	0	0	492	
9	0	0	0	0	505	
10	0	0	0	0	524	
11	0	0	0	0	535	
12	0	0	0	0	536	
13	0	0	0	0	536	
14	0	0	0	0	536	
15	0	0	0	0	537	
0	0	0	0	0	543	
1	0	0	0	0	544	
2	0	0	0	0	545	
3	0	0	0	0	547	
4	0	0	0	0	539	
5	0	0	0	0	521	
6	0	0	0	0	518	
7	0	0	0	0	526	
8	0	0	0	0	527	
9	0	0	0	0	523	
10	0	0	0	0	512	
11	0	0	0	0	508	
12	0	0	0	0	511	
13	0	0	0	0	511	
14	0	0	0	0	512	
15	0	0	0	0	513	
0	0	0	0	0	504	
1	0	0	0	0	497	
2	0	0	0	0	501	
3	0	0	0	0	513	
4	0	0	0	0	527	
5	0	0	0	0	542	
6	0	0	0	0	557	
7	0	0	0	0	569	
8	0	0	0	0	579	
9	0	0	0	0	563	
10	0	0	0	0	531	
11	0	0	0	0	515	
12	0	0	0	0	513	
13	0	0	0	0	512	
14	0	0	0	0	512	
15	0	0	0	0	512	
0	0	0	0	0	519	
1	0	0	0	0	519	
2	0	0	0	0	515	
3	0	0	0	0	501	
4	0	0	0	0	484	
5	0	0	0	0	473	
6	0	0	0	0	473	
7	0	0	0	0	475	
8	0	0	0	0	483	
9	0	0	0	0	502	
10	0	0	0	0	525	
11	0	0	0	0	537	
12	0	0	0	0	546	
13	0	0	0	0	548	
14	0	0	0	0	546	
15	0	0	0	0	544	
0	0	0	0	0	547	
1	0	0	0	0	553	
2	0	0	0	0	560	
3	0	0	0	0	568	
4	0	0	0	0	563	
5	0	0	0	0	555	
6	0	0	0	0	543	
7	0	0	0	0	528	
8	0	0	0	0	520	
9	0	0	0	0	530	
10	0	0	0	0	535	
11	0	0	0	0	536	
12	0	0	0	0	539	
13	0	0	0	0	539	
14	0	0	0	0	545	
15	0	0	0	0	550	
0	0	0	0	0	550	
1	0	0	0	0	546	
2	0	0	0	0	542	
3	0	0	0	0	539	
4	0	0	0	0	535	
5	0	0	0	0	532	
6	0	0	0	0	537	
7	0	0	0	0	543	
8	0	0	0	0	544	
9	0	0	0	0	543	
10	0	0	0	0	540	
11	0	0	0	0	538	
12	0	0	0	0	537	
13	0	0	0	0	537	
14	0	0	0	0	531	
15	0	0	0	0	530	
0	0	0	0	0	538	
1	0	0	0	0	546	
2	0	0	0	0	553	
3	0	0	0	0	555	
4	0	0	0	0	564	
5	0	0	0	0	567	
6	0	0	0	0	559	
7	0	0	0	0	550	
8	0	0	0	0	539	
9	0	0	0	0	537	
10	0	0	0	0	540	
11	0	0	0	0	536	
12	0	0	0	0	542	
13	0	0	0	0	545	
14	0	0	0	0	545	
15	0	0	0	0	551	
0	0	0	0	0	552	
1	0	0	0	0	554	
2	0	0	0	0	556	
3	0	0	0	0	555	
4	0	0	0	0	555	
5	0	0	0	0	558	
6	0	0	0	0	560	
7	0	0	0	0	561	
8	0	0	0	0	566	
9	0	0	0	0	572	
10	0	0	0	0	570	
11	0	0	0	0	569	
12	0	0	0	0	575	
13	0	0	0	0	587	
14	0	0	0	0	587	
15	0	0	0	0	583	
0	0	0	0	0	569	
1	0	0	0	0	558	
2	0	0	0	0	557	
3	0	0	0	0	550	
4	0	0	0	0	552	
5	0	0	0	0	554	
6	0	0	0	0	559	
7	0	0	0	0	560	
8	0	0	0	0	559	
9	0	0	0	0	562	
10	0	0	0	0	571	
11	0	0	0	0	574	
12	0	0	0	0	572	
13	0	0	0	0	573	
14	0	0	0	0	568	
15	0	0	0	0	563	
0	0	0	0	0	565	
1	0	0	0	0	560	
2	0	0	0	0	563	
3	0	0	0	0	572	
4	0	0	0	0	576	
5	0	0	0	0	572	
6	0	0	0	0	575	
7	0	0	0	0	578	
8	0	0	0	0	572	
9	0	0	0	0	564	
10	0	0	0	0	561	
11	0	0	0	0	563	
12	0	0	0	0	565	
13	0	0	0	0	573	
14	0	0	0	0	579	
15	0	0	0	0	583	
0	0	0	0	0	584	
1	0	0	0	0	568	
2	0	0	0	0	549	
3	0	0	0	0	544	
4	0	0	0	0	531	
5	0	0	0	0	525	
6	0	0	0	0	525	
7	0	0	0	0	526	
8	0	0	0	0	529	
9	0	0	0	0	531	
10	0	0	0	0	531	
11	0	0	0	0	527	
12	0	0	0	0	523	
13	0	0	0	0	519	
14	0	0	0	0	519	
15	0	0	0	0	514	
0	0	0	0	0	507	
1	0	0	0	0	505	
2	0	0	0	0	506	
3	0	0	0	0	506	
4	0	0	0	0	503	
5	0	0	0	0	505	
6	0	0	0	0	502	
7	0	0	0	0	499	
8	0	0	0	0	501	
9	0	0	0	0	504	
10	0	0	0	0	505	
11	0	0	0	0	503	
12	0	0	0	0	499	
13	0	0	0	0	489	
14	0	0	0	0	476	
15	0	0	0	0	469	
0	0	0	0	0	467	
1	0	0	0	0	476	
2	0	0	0	0	482	
3	0	0	0	0	480	
4	0	0	0	0	478	
5	0	0	0	0	476	
6	0	0	0	0	476	
7	0	0	0	0	477	
8	0	0	0	0	481	
9	0	0	0	0	482	
10	0	0	0	0	483	
11	0	0	0	0	485	
12	0	0	0	0	481	
13	0	0	0	0	480	
14	0	0	0	0	484	
15	0	0	0	0	489	
0	0	0	0	0	491	
1	0	0	0	0	483	
2	0	0	0	0	476	
3	0	0	0	0	472	
4	0	0	0	0	466	
5	0	0	0	0	467	
6	0	0	0	0	476	
7	0	0	0	0	475	
8	0	0	0	0	477	
9	0	0	0	0	483	
10	0	0	0	0	479	
11	0	0	0	0	464	
12	0	0	0	0	454	
13	0	0	0	0	451	
14	0	0	0	0	449	
15	0	0	0	0	448	
0	0	0	0	0	448	
1	0	0	0	0	452	
2	0	0	0	0	457	
3	0	0	0	0	464	
4	0	0	0	0	469	
5	0	0	0	0	471	
6	0	0	0	0	473	
7	0	0	0	0	473	
8	0	0	0	0	473	
9	0	0	0	0	473	
10	0	0	0	0	468	
11	0	0	0	0	466	
12	0	0	0	0	468	
13	0	0	0	0	471	
14	0	0	0	0	472	
15	0	0	0	0	469	
0	0	0	0	0	467	
1	0	0	0	0	468	
2	0	0	0	0	470	
3	0	0	0	0	473	
4	0	0	0	0	464	
5	0	0	0	0	463	
6	0	0	0	0	479	
7	0	0	0	0	488	
8	0	0	0	0	502	
9	0	0	0	0	505	
10	0	0	0	0	501	
11	0	0	0	0	497	
12	0	0	0	0	479	
13	0	0	0	0	458	
14	0	0	0	0	439	
15	0	0	0	0	432	
0	0	0	0	0	447	
1	0	0	0	0	459	
2	0	0	0	0	469	
3	0	0	0	0	471	
4	0	0	0	0	471	
5	0	0	0	0	473	
6	0	0	0	0	478	
7	0	0	0	0	480	
8	0	0	0	0	480	
9	0	0	0	0	480	
10	0	0	0	0	478	
11	0	0	0	0	478	
12	0	0	0	0	480	
13	0	0	0	0	481	
14	0	0	0	0	484	
15	0	0	0	0	485	
0	0	0	0	0	488	
1	0	0	0	0	489	
2	0	0	0	0	491	
3	0	0	0	0	484	
4	0	0	0	0	479	
5	0	0	0	0	479	
6	0	0	0	0	482	
7	0	0	0	0	479	
8	0	0	0	0	479	
9	0	0	0	0	484	
10	0	0	0	0	491	
11	0	0	0	0	488	
12	0	0	0	0	478	
13	0	0	0	0	479	
14	0	0	0	0	478	
15	0	0	0	0	481	
0	0	0	0	0	485	
1	0	0	0	0	484	
2	0	0	0	0	486	
3	0	0	0	0	484	
4	0	0	0	0	484	
5	0	0	0	0	484	
6	0	0	0	0	484	
7	0	0	0	0	483	
8	0	0	0	0	484	
9	0	0	0	0	486	
10	0	0	0	0	488	
11	0	0	0	0	488	
12	0	0	0	0	484	
13	0	0	0	0	483	
14	0	0	0	0	484	
15	0	0	0	0	487	
0	0	0	0	0	488	
1	0	0	0	0	490	
2	0	0	0	0	490	
3	0	0	0	0	486	
4	0	0	0	0	482	
5	0	0	0	0	483	
6	0	0	0	0	484	
7	0	0	0	0	485	
8	0	0	0	0	488	
9	0	0	0	0	487	
10	0	0	0	0	489	
11	0	0	0	0	496	
12	0	0	0	0	499	
13	0	0	0	0	502	
14	0	0	0	0	507	
15	0	0	0	0	501	
0	0	0	0	0	496	
1	0	0	0	0	494	
2	0	0	0	0	494	
3	0	0	0	0	499	
4	0	0	0	0	501	
5	0	0	0	0	495	
6	0	0	0	0	479	
7	0	0	0	0	469	
8	0	0	0	0	478	
9	0	0	0	0	485	
10	0	0	0	0	490	
11	0	0	0	0	494	
12	0	0	0	0	493	
13	0	0	0	0	491	
14	0	0	0	0	494	
15	0	0	0	0	497	
0	0	0	0	0	500	
1	0	0	0	0	501	
2	0	0	0	0	499	
3	0	0	0	0	496	
4	0	0	0	0	497	
5	0	0	0	0	495	
6	0	0	0	0	496	
7	0	0	0	0	499	
8	0	0	0	0	497	
9	0	0	0	0	499	
10	0	0	0	0	502	
11	0	0	0	0	497	
12	0	0	0	0	487	
13	0	0	0	0	486	
14	0	0	0	0	489	
15	0	0	0	0	488	
0	0	0	0	0	493	
1	0	0	0	0	502	
2	0	0	0	0	505	
3	0	0	0	0	506	
4	0	0	0	0	506	
5	0	0	0	0	507	
6	0	0	0	0	507	
7	0	0	0	0	508	
8	0	0	0	0	512	
9	0	0	0	0	512	
10	0	0	0	0	510	
11	0	0	0	0	504	
12	0	0	0	0	496	
13	0	0	0	0	492	
14	0	0	0	0	487	
15	0	0	0	0	486	
0	0	0	0	0	483	
1	0	0	0	0	483	
2	0	0	0	0	486	
3	0	0	0	0	492	
4	0	0	0	0	496	
5	0	0	0	0	502	
6	0	0	0	0	505	
7	0	0	0	0	505	
8	0	0	0	0	505	
9	0	0	0	0	505	
10	0	0	0	0	504	
11	0	0	0	0	504	
12	0	0	0	0	509	
13	0	0	0	0	512	
14	0	0	0	0	514	
15	0	0	0	0	515	
0	0	0	0	0	518	
1	0	0	0	0	518	
2	0	0	0	0	518	
3	0	0	0	0	518	
4	0	0	0	0	518	
5	0	0	0	0	519	
6	0	0	0	0	518	
7	0	0	0	0	519	
8	0	0	0	0	519	
9	0	0	0	0	521	
10	0	0	0	0	524	
11	0	0	0	0	525	
12	0	0	0	0	519	
13	0	0	0	0	513	
14	0	0	0	0	518	
15	0	0	0	0	524	
0	0	0	0	0	527	
1	0	0	0	0	527	
2	0	0	0	0	522	
3	0	0	0	0	515	
4	0	0	0	0	512	
5	0	0	0	0	508	
6	0	0	0	0	504	
7	0	0	0	0	500	
8	0	0	0	0	499	
9	0	0	0	0	496	
10	0	0	0	0	499	
11	0	0	0	0	499	
12	0	0	0	0	502	
13	0	0	0	0	504	
14	0	0	0	0	504	
15	0	0	0	0	503	
0	0	0	0	0	504	
1	0	0	0	0	504	
2	0	0	0	0	503	
3	0	0	0	0	502	
4	0	0	0	0	500	
5	0	0	0	0	496	
6	0	0	0	0	491	
7	0	0	0	0	490	
8	0	0	0	0	492	
9	0	0	0	0	493	
10	0	0	0	0	496	
11	0	0	0	0	496	
12	0	0	0	0	498	
13	0	0	0	0	505	
14	0	0	0	0	513	
15	0	0	0	0	510	
0	0	0	0	0	500	
1	0	0	0	0	492	
2	0	0	0	0	485	
3	0	0	0	0	474	
4	0	0	0	0	475	
5	0	0	0	0	481	
6	0	0	0	0	477	
7	0	0	0	0	475	
8	0	0	0	0	476	
9	0	0	0	0	475	
10	0	0	0	0	476	
11	0	0	0	0	481	
12	0	0	0	0	482	
13	0	0	0	0	487	
14	0	0	0	0	493	
15	0	0	0	0	495	
0	0	0	0	0	495	
1	0	0	0	0	496	
2	0	0	0	0	499	
3	0	0	0	0	502	
4	0	0	0	0	501	
5	0	0	0	0	500	
6	0	0	0	0	502	
7	0	0	0	0	503	
8	0	0	0	0	500	
9	0	0	0	0	502	
10	0	0	0	0	499	
11	0	0	0	0	494	
12	0	0	0	0	493	
13	0	0	0	0	495	
14	0	0	0	0	496	
15	0	0	0	0	497	
0	0	0	0	0	498	
1	0	0	0	0	498	
2	0	0	0	0	499	
3	0	0	0	0	501	
4	0	0	0	0	503	
5	0	0	0	0	504	
6	0	0	0	0	504	
7	0	0	0	0	504	
8	0	0	0	0	504	
9	0	0	0	0	505	
10	0	0	0	0	508	
11	0	0	0	0	506	
12	0	0	0	0	501	
13	0	0	0	0	497	
14	0	0	0	0	497	
15	0	0	0	0	495	
0	0	0	0	0	492	
1	0	0	0	0	488	
2	0	0	0	0	487	
3	0	0	0	0	491	
4	0	0	0	0	495	
5	0	0	0	0	500	
6	0	0	0	0	500	
7	0	0	0	0	499	
8	0	0	0	0	500	
9	0	0	0	0	504	
10	0	0	0	0	508	
11	0	0	0	0	510	
12	0	0	0	0	510	
13	0	0	0	0	509	
14	0	0	0	0	507	
15	0	0	0	0	508	
0	0	0	0	0	515	
1	0	0	0	0	518	
2	0	0	0	0	519	
3	0	0	0	0	520	
4	0	0	0	0	523	
5	0	0	0	0	530	
6	0	0	0	0	539	
7	0	0	0	0	548	
8	0	0	0	0	559	
9	0	0	0	0	574	
10	0	0	0	0	589	
11	0	0	0	0	603	
12	0	0	0	0	618	
13	0	0	0	0	633	
14	0	0	0	0	650	
15	0	0	0	0	667	
0	0	0	0	0	677	
1	0	0	0	0	687	
2	0	0	0	0	699	
3	0	0	0	0	713	
4	0	0	0	0	726	
5	0	0	0	0	736	
6	0	0	0	0	743	
7	0	0	0	0	750	
8	0	0	0	0	752	
9	0	0	0	0	748	
10	0	0	0	0	741	
11	0	0	0	0	731	
12	0	0	0	0	716	
13	0	0	0	0	700	
14	0	0	0	0	679	
15	0	0	0	0	656	
0	0	0	0	0	630	
1	0	0	0	0	596	
2	0	0	0	0	560	
3	0	0	0	0	523	
4	0	0	0	0	487	
5	0	0	0	0	451	
6	0	0	0	0	415	
7	0	0	0	0	388	
8	0	0	0	0	368	
9	0	0	0	0	353	
10	0	0	0	0	345	
11	0	0	0	0	341	
12	0	0	0	0	341	
13	0	0	0	0	342	
14	0	0	0	0	341	
15	0	0	0	0	340	
0	0	0	0	0	342	
1	0	0	0	0	344	
2	0	0	0	0	345	
3	0	0	0	0	346	
4	0	0	0	0	347	
5	0	0	0	0	352	
6	0	0	0	0	359	
7	0	0	0	0	371	
8	0	0	0	0	382	
9	0	0	0	0	388	
10	0	0	0	0	398	
11	0	0	0	0	408	
12	0	0	0	0	408	
13	0	0	0	0	411	
14	0	0	0	0	417	
15	0	0	0	0	425	
0	0	0	0	0	435	
1	0	0	0	0	444	
2	0	0	0	0	448	
3	0	0	0	0	451	
4	0	0	0	0	460	
5	0	0	0	0	466	
6	0	0	0	0	473	
7	0	0	0	0	484	
8	0	0	0	0	490	
9	0	0	0	0	492	
10	0	0	0	0	493	
11	0	0	0	0	498	
12	0	0	0	0	493	
13	0	0	0	0	481	
14	0	0	0	0	484	
15	0	0	0	0	488	
0	0	0	0	0	482	
1	0	0	0	0	479	
2	0	0	0	0	480	
3	0	0	0	0	484	
4	0	0	0	0	488	
5	0	0	0	0	493	
6	0	0	0	0	498	
7	0	0	0	0	501	
8	0	0	0	0	500	
9	0	0	0	0	503	
10	0	0	0	0	510	
11	0	0	0	0	512	
12	0	0	0	0	510	
13	0	0	0	0	512	
14	0	0	0	0	512	
15	0	0	0	0	509	
0	0	0	0	0	507	
1	0	0	0	0	507	
2	0	0	0	0	508	
3	0	0	0	0	511	
4	0	0	0	0	514	
5	0	0	0	0	514	
6	0	0	0	0	515	
7	0	0	0	0	514	
8	0	0	0	0	517	
9	0	0	0	0	514	
10	0	0	0	0	512	
11	0	0	0	0	512	
12	0	0	0	0	516	
13	0	0	0	0	520	
14	0	0	0	0	518	
15	0	0	0	0	512	
0	0	0	0	0	513	
1	0	0	0	0	513	
2	0	0	0	0	511	
3	0	0	0	0	511	
4	0	0	0	0	510	
5	0	0	0	0	509	
6	0	0	0	0	511	
7	0	0	0	0	510	
8	0	0	0	0	508	
9	0	0	0	0	507	
10	0	0	0	0	509	
11	0	0	0	0	512	
12	0	0	0	0	515	
13	0	0	0	0	517	
14	0	0	0	0	519	
15	0	0	0	0	520	
0	0	0	0	0	523	
1	0	0	0	0	527	
2	0	0	0	0	531	
3	0	0	0	0	530	
4	0	0	0	0	526	
5	0	0	0	0	524	
6	0	0	0	0	523	
7	0	0	0	0	524	
8	0	0	0	0	520	
9	0	0	0	0	520	
10	0	0	0	0	521	
11	0	0	0	0	513	
12	0	0	0	0	510	
13	0	0	0	0	510	
14	0	0	0	0	508	
15	0	0	0	0	509	
0	0	0	0	0	513	
1	0	0	0	0	518	
2	0	0	0	0	517	
3	0	0	0	0	516	
4	0	0	0	0	518	
5	0	0	0	0	522	
6	0	0	0	0	523	
7	0	0	0	0	524	
8	0	0	0	0	524	
9	0	0	0	0	525	
10	0	0	0	0	526	
11	0	0	0	0	524	
12	0	0	0	0	527	
13	0	0	0	0	537	
14	0	0	0	0	539	
15	0	0	0	0	540	
0	0	0	0	0	535	
1	0	0	0	0	528	
2	0	0	0	0	520	
3	0	0	0	0	514	
4	0	0	0	0	513	
5	0	0	0	0	519	
6	0	0	0	0	521	
7	0	0	0	0	522	
8	0	0	0	0	520	
9	0	0	0	0	519	
10	0	0	0	0	520	
11	0	0	0	0	519	
12	0	0	0	0	519	
13	0	0	0	0	515	
14	0	0	0	0	515	
15	0	0	0	0	520	
0	0	0	0	0	523	
1	0	0	0	0	524	
2	0	0	0	0	524	
3	0	0	0	0	528	
4	0	0	0	0	534	
5	0	0	0	0	534	
6	0	0	0	0	531	
7	0	0	0	0	533	
8	0	0	0	0	538	
9	0	0	0	0	538	
10	0	0	0	0	535	
11	0	0	0	0	534	
12	0	0	0	0	532	
13	0	0	0	0	529	
14	0	0	0	0	531	
15	0	0	0	0	537	
0	0	0	0	0	538	
1	0	0	0	0	535	
2	0	0	0	0	537	
3	0	0	0	0	537	
4	0	0	0	0	536	
5	0	0	0	0	536	
6	0	0	0	0	536	
7	0	0	0	0	539	
8	0	0	0	0	542	
9	0	0	0	0	544	
10	0	0	0	0	545	
11	0	0	0	0	543	
12	0	0	0	0	544	
13	0	0	0	0	546	
14	0	0	0	0	545	
15	0	0	0	0	547	
0	0	0	0	0	548	
1	0	0	0	0	550	
2	0	0	0	0	552	
3	0	0	0	0	556	
4	0	0	0	0	559	
5	0	0	0	0	559	
6	0	0	0	0	555	
7	0	0	0	0	555	
8	0	0	0	0	559	
9	0	0	0	0	565	
10	0	0	0	0	566	
11	0	0	0	0	569	
12	0	0	0	0	579	
13	0	0	0	0	586	
14	0	0	0	0	575	
15	0	0	0	0	562	
0	0	0	0	0	557	
1	0	0	0	0	558	
2	0	0	0	0	560	
3	0	0	0	0	558	
4	0	0	0	0	556	
5	0	0	0	0	557	
6	0	0	0	0	561	
7	0	0	0	0	566	
8	0	0	0	0	566	
9	0	0	0	0	564	
10	0	0	0	0	562	
11	0	0	0	0	564	
12	0	0	0	0	564	
13	0	0	0	0	562	
14	0	0	0	0	561	
15	0	0	0	0	562	
0	0	0	0	0	562	
1	0	0	0	0	561	
2	0	0	0	0	562	
3	0	0	0	0	560	
4	0	0	0	0	556	
5	0	0	0	0	555	
6	0	0	0	0	551	
7	0	0	0	0	550	
8	0	0	0	0	553	
9	0	0	0	0	558	
10	0	0	0	0	559	
11	0	0	0	0	561	
12	0	0	0	0	560	
13	0	0	0	0	555	
14	0	0	0	0	547	
15	0	0	0	0	540	
0	0	0	0	0	529	
1	0	0	0	0	519	
2	0	0	0	0	519	
3	0	0	0	0	522	
4	0	0	0	0	524	
5	0	0	0	0	526	
6	0	0	0	0	526	
7	0	0	0	0	524	
8	0	0	0	0	523	
9	0	0	0	0	520	
10	0	0	0	0	520	
11	0	0	0	0	521	
12	0	0	0	0	519	
13	0	0	0	0	516	
14	0	0	0	0	515	
15	0	0	0	0	511	
0	0	0	0	0	513	
1	0	0	0	0	510	
2	0	0	0	0	508	
3	0	0	0	0	507	
4	0	0	0	0	507	
5	0	0	0	0	506	
6	0	0	0	0	502	
7	0	0	0	0	499	
8	0	0	0	0	497	
9	0	0	0	0	496	
10	0	0	0	0	496	
11	0	0	0	0	496	
12	0	0	0	0	498	
13	0	0	0	0	498	
14	0	0	0	0	493	
15	0	0	0	0	491	
0	0	0	0	0	486	
1	0	0	0	0	484	
2	0	0	0	0	483	
3	0	0	0	0	483	
4	0	0	0	0	484	
5	0	0	0	0	482	
6	0	0	0	0	481	
7	0	0	0	0	478	
8	0	0	0	0	476	
9	0	0	0	0	473	
10	0	0	0	0	471	
11	0	0	0	0	472	
12	0	0	0	0	473	
13	0	0	0	0	479	
14	0	0	0	0	484	
15	0	0	0	0	489	
0	0	0	0	0	492	
1	0	0	0	0	492	
2	0	0	0	0	493	
3	0	0	0	0	483	
4	0	0	0	0	473	
5	0	0	0	0	472	
6	0	0	0	0	470	
7	0	0	0	0	472	
8	0	0	0	0	478	
9	0	0	0	0	479	
10	0	0	0	0	481	
11	0	0	0	0	480	
12	0	0	0	0	473	
13	0	0	0	0	473	
14	0	0	0	0	471	
15	0	0	0	0	470	
0	0	0	0	0	474	
1	0	0	0	0	474	
2	0	0	0	0	473	
3	0	0	0	0	475	
4	0	0	0	0	481	
5	0	0	0	0	482	
6	0	0	0	0	483	
7	0	0	0	0	481	
8	0	0	0	0	479	
9	0	0	0	0	479	
10	0	0	0	0	482	
11	0	0	0	0	482	
12	0	0	0	0	482	
13	0	0	0	0	481	
14	0	0	0	0	481	
15	0	0	0	0	479	
0	0	0	0	0	478	
1	0	0	0	0	477	
2	0	0	0	0	478	
3	0	0	0	0	482	
4	0	0	0	0	483	
5	0	0	0	0	481	
6	0	0	0	0	479	
7	0	0	0	0	480	
8	0	0	0	0	482	
9	0	0	0	0	483	
10	0	0	0	0	486	
11	0	0	0	0	488	
12	0	0	0	0	487	
13	0	0	0	0	488	
14	0	0	0	0	487	
15	0	0	0	0	484	
0	0	0	0	0	483	
1	0	0	0	0	479	
2	0	0	0	0	476	
3	0	0	0	0	478	
4	0	0	0	0	483	
5	0	0	0	0	491	
6	0	0	0	0	493	
7	0	0	0	0	496	
8	0	0	0	0	503	
9	0	0	0	0	504	
10	0	0	0	0	503	
11	0	0	0	0	503	
12	0	0	0	0	506	
13	0	0	0	0	505	
14	0	0	0	0	501	
15	0	0	0	0	494	
0	0	0	0	0	489	
1	0	0	0	0	488	
2	0	0	0	0	484	
3	0	0	0	0	485	
4	0	0	0	0	484	
5	0	0	0	0	485	
6	0	0	0	0	487	
7	0	0	0	0	485	
8	0	0	0	0	485	
9	0	0	0	0	485	
10	0	0	0	0	489	
11	0	0	0	0	491	
12	0	0	0	0	492	
13	0	0	0	0	494	
14	0	0	0	0	492	
15	0	0	0	0	489	
0	0	0	0	0	488	
1	0	0	0	0	489	
2	0	0	0	0	490	
3	0	0	0	0	492	
4	0	0	0	0	493	
5	0	0	0	0	495	
6	0	0	0	0	495	
7	0	0	0	0	496	
8	0	0	0	0	495	
9	0	0	0	0	493	
10	0	0	0	0	493	
11	0	0	0	0	494	
12	0	0	0	0	493	
13	0	0	0	0	492	
14	0	0	0	0	490	
15	0	0	0	0	488	
0	0	0	0	0	488	
1	0	0	0	0	488	
2	0	0	0	0	487	
3	0	0	0	0	487	
4	0	0	0	0	488	
5	0	0	0	0	493	
6	0	0	0	0	499	
7	0	0	0	0	499	
8	0	0	0	0	497	
9	0	0	0	0	503	
10	0	0	0	0	509	
11	0	0	0	0	516	
12	0	0	0	0	519	
13	0	0	0	0	519	
14	0	0	0	0	513	
15	0	0	0	0	509	
0	0	0	0	0	507	
1	0	0	0	0	511	
2	0	0	0	0	512	
3	0	0	0	0	507	
4	0	0	0	0	498	
5	0	0	0	0	492	
6	0	0	0	0	491	
7	0	0	0	0	489	
8	0	0	0	0	488	
9	0	0	0	0	492	
10	0	0	0	0	492	
11	0	0	0	0	494	
12	0	0	0	0	499	
13	0	0	0	0	504	
14	0	0	0	0	502	
15	0	0	0	0	498	
0	0	0	0	0	495	
1	0	0	0	0	493	
2	0	0	0	0	491	
3	0	0	0	0	492	
4	0	0	0	0	495	
5	0	0	0	0	499	
6	0	0	0	0	500	
7	0	0	0	0	502	
8	0	0	0	0	503	
9	0	0	0	0	504	
10	0	0	0	0	505	
11	0	0	0	0	507	
12	0	0	0	0	508	
13	0	0	0	0	506	
14	0	0	0	0	507	
15	0	0	0	0	509	
0	0	0	0	0	508	
1	0	0	0	0	507	
2	0	0	0	0	503	
3	0	0	0	0	499	
4	0	0	0	0	500	
5	0	0	0	0	503	
6	0	0	0	0	502	
7	0	0	0	0	500	
8	0	0	0	0	497	
9	0	0	0	0	495	
10	0	0	0	0	497	
11	0	0	0	0	497	
12	0	0	0	0	496	
13	0	0	0	0	500	
14	0	0	0	0	503	
15	0	0	0	0	501	
0	0	0	0	0	496	
1	0	0	0	0	497	
2	0	0	0	0	501	
3	0	0	0	0	505	
4	0	0	0	0	511	
5	0	0	0	0	520	
6	0	0	0	0	519	
7	0	0	0	0	515	
8	0	0	0	0	513	
9	0	0	0	0	506	
10	0	0	0	0	507	
11	0	0	0	0	507	
12	0	0	0	0	512	
13	0	0	0	0	514	
14	0	0	0	0	512	
15	0	0	0	0	507	
0	0	0	0	0	505	
1	0	0	0	0	507	
2	0	0	0	0	510	
3	0	0	0	0	512	
4	0	0	0	0	512	
5	0	0	0	0	514	
6	0	0	0	0	514	
7	0	0	0	0	515	
8	0	0	0	0	513	
9	0	0	0	0	511	
10	0	0	0	0	513	
11	0	0	0	0	515	
12	0	0	0	0	517	
13	0	0	0	0	519	
14	0	0	0	0	519	
15	0	0	0	0	519	
0	0	0	0	0	519	
1	0	0	0	0	522	
2	0	0	0	0	527	
3	0	0	0	0	526	
4	0	0	0	0	521	
5	0	0	0	0	523	
6	0	0	0	0	528	
7	0	0	0	0	529	
8	0	0	0	0	527	
9	0	0	0	0	525	
10	0	0	0	0	522	
11	0	0	0	0	521	
12	0	0	0	0	519	
13	0	0	0	0	521	
14	0	0	0	0	521	
15	0	0	0	0	519	
0	0	0	0	0	519	
1	0	0	0	0	518	
2	0	0	0	0	517	
3	0	0	0	0	516	
4	0	0	0	0	515	
5	0	0	0	0	513	
6	0	0	0	0	512	
7	0	0	0	0	511	
8	0	0	0	0	504	
9	0	0	0	0	502	
10	0	0	0	0	503	
11	0	0	0	0	504	
12	0	0	0	0	504	
13	0	0	0	0	509	
14	0	0	0	0	515	
15	0	0	0	0	518	
0	0	0	0	0	519	
1	0	0	0	0	508	
2	0	0	0	0	501	
3	0	0	0	0	499	
4	0	0	0	0	502	
5	0	0	0	0	497	
6	0	0	0	0	491	
7	0	0	0	0	487	
8	0	0	0	0	480	
9	0	0	0	0	481	
10	0	0	0	0	484	
11	0	0	0	0	488	
12	0	0	0	0	490	
13	0	0	0	0	491	
14	0	0	0	0	493	
15	0	0	0	0	492	
0	0	0	0	0	492	
1	0	0	0	0	489	
2	0	0	0	0	484	
3	0	0	0	0	486	
4	0	0	0	0	490	
5	0	0	0	0	493	
6	0	0	0	0	492	
7	0	0	0	0	493	
8	0	0	0	0	492	
9	0	0	0	0	492	
10	0	0	0	0	492	
11	0	0	0	0	492	
12	0	0	0	0	492	
13	0	0	0	0	493	
14	0	0	0	0	495	
15	0	0	0	0	496	
0	0	0	0	0	497	
1	0	0	0	0	496	
2	0	0	0	0	496	
3	0	0	0	0	494	
4	0	0	0	0	493	
5	0	0	0	0	495	
6	0	0	0	0	499	
7	0	0	0	0	500	
8	0	0	0	0	498	
9	0	0	0	0	499	
10	0	0	0	0	502	
11	0	0	0	0	497	
12	0	0	0	0	493	
13	0	0	0	0	494	
14	0	0	0	0	498	
15	0	0	0	0	500	
0	0	0	0	0	501	
1	0	0	0	0	503	
2	0	0	0	0	507	
3	0	0	0	0	509	
4	0	0	0	0	512	
5	0	0	0	0	512	
6	0	0	0	0	511	
7	0	0	0	0	505	
8	0	0	0	0	502	
9	0	0	0	0	497	
10	0	0	0	0	494	
11	0	0	0	0	493	
12	0	0	0	0	492	
13	0	0	0	0	495	
14	0	0	0	0	496	
15	0	0	0	0	497	
0	0	0	0	0	496	
1	0	0	0	0	495	
2	0	0	0	0	498	
3	0	0	0	0	498	
4	0	0	0	0	496	
5	0	0	0	0	497	
6	0	0	0	0	499	
7	0	0	0	0	499	
8	0	0	0	0	498	
9	0	0	0	0	494	
10	0	0	0	0	493	
11	0	0	0	0	495	
12	0	0	0	0	496	
13	0	0	0	0	497	
14	0	0	0	0	498	
15	0	0	0	0	499	
0	0	0	0	0	509	
1	0	0	0	0	518	
2	0	0	0	0	531	
3	0	0	0	0	547	
4	0	0	0	0	561	
5	0	0	0	0	574	
6	0	0	0	0	586	
7	0	0	0	0	601	
8	0	0	0	0	615	
9	0	0	0	0	634	
10	0	0	0	0	650	
11	0	0	0	0	663	
12	0	0	0	0	679	
13	0	0	0	0	699	
14	0	0	0	0	722	
15	0	0	0	0	742	
0	0	0	0	0	759	
1	0	0	0	0	773	
2	0	0	0	0	781	
3	0	0	0	0	790	
4	0	0	0	0	796	
5	0	0	0	0	784	
6	0	0	0	0	774	
7	0	0	0	0	766	
8	0	0	0	0	754	
9	0	0	0	0	730	
10	0	0	0	0	705	
11	0	0	0	0	674	
12	0	0	0	0	645	
13	0	0	0	0	611	
14	0	0	0	0	572	
15	0	0	0	0	537	
0	0	0	0	0	500	
1	0	0	0	0	462	
2	0	0	0	0	423	
3	0	0	0	0	391	
4	0	0	0	0	371	
5	0	0	0	0	355	
6	0	0	0	0	339	
7	0	0	0	0	327	
8	0	0	0	0	321	
9	0	0	0	0	318	
10	0	0	0	0	318	
11	0	0	0	0	316	
12	0	0	0	0	317	
13	0	0	0	0	318	
14	0	0	0	0	320	
15	0	0	0	0	319	
0	0	0	0	0	319	
1	0	0	0	0	320	
2	0	0	0	0	329	
3	0	0	0	0	339	
4	0	0	0	0	344	
5	0	0	0	0	354	
6	0	0	0	0	364	
7	0	0	0	0	376	
8	0	0	0	0	382	
9	0	0	0	0	386	
10	0	0	0	0	390	
11	0	0	0	0	401	
12	0	0	0	0	411	
13	0	0	0	0	417	
14	0	0	0	0	422	
15	0	0	0	0	423	
0	0	0	0	0	428	
1	0	0	0	0	433	
2	0	0	0	0	440	
3	0	0	0	0	449	
4	0	0	0	0	454	
5	0	0	0	0	455	
6	0	0	0	0	455	
7	0	0	0	0	457	
8	0	0	0	0	462	
9	0	0	0	0	476	
10	0	0	0	0	491	
11	0	0	0	0	501	
12	0	0	0	0	516	
13	0	0	0	0	513	
14	0	0	0	0	505	
15	0	0	0	0	500	
0	0	0	0	0	494	
1	0	0	0	0	485	
2	0	0	0	0	482	
3	0	0	0	0	493	
4	0	0	0	0	508	
5	0	0	0	0	519	
6	0	0	0	0	523	
7	0	0	0	0	522	
8	0	0	0	0	518	
9	0	0	0	0	514	
10	0	0	0	0	512	
11	0	0	0	0	513	
12	0	0	0	0	514	
13	0	0	0	0	510	
14	0	0	0	0	508	
15	0	0	0	0	507	
0	0	0	0	0	506	
1	0	0	0	0	505	
2	0	0	0	0	503	
3	0	0	0	0	505	
4	0	0	0	0	511	
5	0	0	0	0	519	
6	0	0	0	0	523	
7	0	0	0	0	521	
8	0	0	0	0	517	
9	0	0	0	0	512	
10	0	0	0	0	510	
11	0	0	0	0	510	
12	0	0	0	0	506	
13	0	0	0	0	503	
14	0	0	0	0	503	
15	0	0	0	0	504	
0	0	0	0	0	504	
1	0	0	0	0	507	
2	0	0	0	0	509	
3	0	0	0	0	511	
4	0	0	0	0	513	
5	0	0	0	0	512	
6	0	0	0	0	505	
7	0	0	0	0	504	
8	0	0	0	0	504	
9	0	0	0	0	504	
10	0	0	0	0	509	
11	0	0	0	0	513	
12	0	0	0	0	518	
13	0	0	0	0	517	
14	0	0	0	0	512	
15	0	0	0	0	507	
0	0	0	0	0	501	
1	0	0	0	0	501	
2	0	0	0	0	502	
3	0	0	0	0	504	
4	0	0	0	0	506	
5	0	0	0	0	507	
6	0	0	0	0	513	
7	0	0	0	0	516	
8	0	0	0	0	509	
9	0	0	0	0	498	
10	0	0	0	0	488	
11	0	0	0	0	482	
12	0	0	0	0	480	
13	0	0	0	0	481	
14	0	0	0	0	486	
15	0	0	0	0	492	
0	0	0	0	0	496	
1	0	0	0	0	502	
2	0	0	0	0	506	
3	0	0	0	0	510	
4	0	0	0	0	518	
5	0	0	0	0	525	
6	0	0	0	0	531	
7	0	0	0	0	536	
8	0	0	0	0	541	
9	0	0	0	0	546	
10	0	0	0	0	542	
11	0	0	0	0	539	
12	0	0	0	0	539	
13	0	0	0	0	538	
14	0	0	0	0	535	
15	0	0	0	0	534	
0	0	0	0	0	534	
1	0	0	0	0	536	
2	0	0	0	0	540	
3	0	0	0	0	540	
4	0	0	0	0	542	
5	0	0	0	0	537	
6	0	0	0	0	534	
7	0	0	0	0	532	
8	0	0	0	0	536	
9	0	0	0	0	539	
10	0	0	0	0	544	
11	0	0	0	0	545	
12	0	0	0	0	542	
13	0	0	0	0	540	
14	0	0	0	0	535	
15	0	0	0	0	529	
0	0	0	0	0	527	
1	0	0	0	0	535	
2	0	0	0	0	540	
3	0	0	0	0	539	
4	0	0	0	0	541	
5	0	0	0	0	543	
6	0	0	0	0	540	
7	0	0	0	0	534	
8	0	0	0	0	533	
9	0	0	0	0	534	
10	0	0	0	0	536	
11	0	0	0	0	536	
12	0	0	0	0	532	
13	0	0	0	0	532	
14	0	0	0	0	531	
15	0	0	0	0	534	
0	0	0	0	0	536	
1	0	0	0	0	537	
2	0	0	0	0	538	
3	0	0	0	0	533	
4	0	0	0	0	530	
5	0	0	0	0	531	
6	0	0	0	0	535	
7	0	0	0	0	537	
8	0	0	0	0	540	
9	0	0	0	0	543	
10	0	0	0	0	546	
11	0	0	0	0	549	
12	0	0	0	0	548	
13	0	0	0	0	547	
14	0	0	0	0	549	
15	0	0	0	0	546	
0	0	0	0	0	542	
1	0	0	0	0	543	
2	0	0	0	0	544	
3	0	0	0	0	547	
4	0	0	0	0	552	
5	0	0	0	0	555	
6	0	0	0	0	554	
7	0	0	0	0	553	
8	0	0	0	0	558	
9	0	0	0	0	560	
10	0	0	0	0	564	
11	0	0	0	0	564	
12	0	0	0	0	560	
13	0	0	0	0	560	
14	0	0	0	0	559	
15	0	0	0	0	559	
0	0	0	0	0	559	
1	0	0	0	0	557	
2	0	0	0	0	553	
3	0	0	0	0	551	
4	0	0	0	0	549	
5	0	0	0	0	547	
6	0	0	0	0	547	
7	0	0	0	0	551	
8	0	0	0	0	555	
9	0	0	0	0	557	
10	0	0	0	0	556	
11	0	0	0	0	561	
12	0	0	0	0	569	
13	0	0	0	0	567	
14	0	0	0	0	563	
15	0	0	0	0	553	
0	0	0	0	0	548	
1	0	0	0	0	547	
2	0	0	0	0	547	
3	0	0	0	0	545	
4	0	0	0	0	544	
5	0	0	0	0	541	
6	0	0	0	0	541	
7	0	0	0	0	538	
8	0	0	0	0	533	
9	0	0	0	0	530	
10	0	0	0	0	531	
11	0	0	0	0	532	
12	0	0	0	0	533	
13	0	0	0	0	529	
14	0	0	0	0	529	
15	0	0	0	0	527	
0	0	0	0	0	525	
1	0	0	0	0	522	
2	0	0	0	0	518	
3	0	0	0	0	518	
4	0	0	0	0	515	
5	0	0	0	0	511	
6	0	0	0	0	507	
7	0	0	0	0	511	
8	0	0	0	0	522	
9	0	0	0	0	527	
10	0	0	0	0	524	
11	0	0	0	0	513	
12	0	0	0	0	504	
13	0	0	0	0	503	
14	0	0	0	0	498	
15	0	0	0	0	492	
0	0	0	0	0	484	
1	0	0	0	0	479	
2	0	0	0	0	476	
3	0	0	0	0	473	
4	0	0	0	0	474	
5	0	0	0	0	481	
6	0	0	0	0	489	
7	0	0	0	0	493	
8	0	0	0	0	505	
9	0	0	0	0	513	
10	0	0	0	0	510	
11	0	0	0	0	501	
12	0	0	0	0	491	
13	0	0	0	0	484	
14	0	0	0	0	486	
15	0	0	0	0	487	
0	0	0	0	0	484	
1	0	0	0	0	481	
2	0	0	0	0	477	
3	0	0	0	0	476	
4	0	0	0	0	476	
5	0	0	0	0	479	
6	0	0	0	0	477	
7	0	0	0	0	473	
8	0	0	0	0	472	
9	0	0	0	0	470	
10	0	0	0	0	465	
11	0	0	0	0	461	
12	0	0	0	0	465	
13	0	0	0	0	466	
14	0	0	0	0	462	
15	0	0	0	0	456	
0	0	0	0	0	456	
1	0	0	0	0	460	
2	0	0	0	0	463	
3	0	0	0	0	470	
4	0	0	0	0	478	
5	0	0	0	0	486	
6	0	0	0	0	495	
7	0	0	0	0	501	
8	0	0	0	0	499	
9	0	0	0	0	501	
10	0	0	0	0	498	
11	0	0	0	0	488	
12	0	0	0	0	480	
13	0	0	0	0	470	
14	0	0	0	0	464	
15	0	0	0	0	459	
0	0	0	0	0	460	
1	0	0	0	0	467	
2	0	0	0	0	474	
3	0	0	0	0	477	
4	0	0	0	0	477	
5	0	0	0	0	480	
6	0	0	0	0	478	
7	0	0	0	0	476	
8	0	0	0	0	478	
9	0	0	0	0	481	
10	0	0	0	0	486	
11	0	0	0	0	484	
12	0	0	0	0	480	
13	0	0	0	0	473	
14	0	0	0	0	472	
15	0	0	0	0	472	
0	0	0	0	0	467	
1	0	0	0	0	460	
2	0	0	0	0	460	
3	0	0	0	0	475	
4	0	0	0	0	488	
5	0	0	0	0	493	
6	0	0	0	0	491	
7	0	0	0	0	487	
8	0	0	0	0	486	
9	0	0	0	0	484	
10	0	0	0	0	480	
11	0	0	0	0	475	
12	0	0	0	0	475	
13	0	0	0	0	480	
14	0	0	0	0	487	
15	0	0	0	0	487	
0	0	0	0	0	488	
1	0	0	0	0	487	
2	0	0	0	0	486	
3	0	0	0	0	484	
4	0	0	0	0	487	
5	0	0	0	0	487	
6	0	0	0	0	482	
7	0	0	0	0	479	
8	0	0	0	0	475	
9	0	0	0	0	473	
10	0	0	0	0	474	
11	0	0	0	0	479	
12	0	0	0	0	489	
13	0	0	0	0	491	
14	0	0	0	0	487	
15	0	0	0	0	488	
0	0	0	0	0	483	
1	0	0	0	0	480	
2	0	0	0	0	479	
3	0	0	0	0	479	
4	0	0	0	0	478	
5	0	0	0	0	474	
6	0	0	0	0	475	
7	0	0	0	0	478	
8	0	0	0	0	478	
9	0	0	0	0	480	
10	0	0	0	0	488	
11	0	0	0	0	499	
12	0	0	0	0	503	
13	0	0	0	0	499	
14	0	0	0	0	494	
15	0	0	0	0	490	
0	0	0	0	0	488	
1	0	0	0	0	487	
2	0	0	0	0	487	
3	0	0	0	0	487	
4	0	0	0	0	490	
5	0	0	0	0	491	
6	0	0	0	0	492	
7	0	0	0	0	494	
8	0	0	0	0	492	
9	0	0	0	0	494	
10	0	0	0	0	499	
11	0	0	0	0	494	
12	0	0	0	0	482	
13	0	0	0	0	472	
14	0	0	0	0	472	
15	0	0	0	0	477	
0	0	0	0	0	481	
1	0	0	0	0	481	
2	0	0	0	0	479	
3	0	0	0	0	476	
4	0	0	0	0	478	
5	0	0	0	0	488	
6	0	0	0	0	490	
7	0	0	0	0	485	
8	0	0	0	0	482	
9	0	0	0	0	484	
10	0	0	0	0	485	
11	0	0	0	0	484	
12	0	0	0	0	488	
13	0	0	0	0	491	
14	0	0	0	0	492	
15	0	0	0	0	492	
0	0	0	0	0	495	
1	0	0	0	0	504	
2	0	0	0	0	506	
3	0	0	0	0	504	
4	0	0	0	0	499	
5	0	0	0	0	497	
6	0	0	0	0	495	
7	0	0	0	0	489	
8	0	0	0	0	489	
9	0	0	0	0	493	
10	0	0	0	0	493	
11	0	0	0	0	487	
12	0	0	0	0	491	
13	0	0	0	0	496	
14	0	0	0	0	492	
15	0	0	0	0	496	
0	0	0	0	0	496	
1	0	0	0	0	487	
2	0	0	0	0	483	
3	0	0	0	0	479	
4	0	0	0	0	479	
5	0	0	0	0	483	
6	0	0	0	0	487	
7	0	0	0	0	484	
8	0	0	0	0	481	
9	0	0	0	0	489	
10	0	0	0	0	492	
11	0	0	0	0	486	
12	0	0	0	0	479	
13	0	0	0	0	477	
14	0	0	0	0	478	
15	0	0	0	0	475	
0	0	0	0	0	478	
1	0	0	0	0	481	
2	0	0	0	0	487	
3	0	0	0	0	487	
4	0	0	0	0	487	
5	0	0	0	0	493	
6	0	0	0	0	503	
7	0	0	0	0	513	
8	0	0	0	0	522	
9	0	0	0	0	530	
10	0	0	0	0	538	
11	0	0	0	0	542	
12	0	0	0	0	542	
13	0	0	0	0	540	
14	0	0	0	0	539	
15	0	0	0	0	534	
0	0	0	0	0	520	
1	0	0	0	0	502	
2	0	0	0	0	491	
3	0	0	0	0	490	
4	0	0	0	0	492	
5	0	0	0	0	491	
6	0	0	0	0	491	
7	0	0	0	0	493	
8	0	0	0	0	496	
9	0	0	0	0	503	
10	0	0	0	0	508	
11	0	0	0	0	508	
12	0	0	0	0	512	
13	0	0	0	0	515	
14	0	0	0	0	516	
15	0	0	0	0	511	
0	0	0	0	0	502	
1	0	0	0	0	496	
2	0	0	0	0	500	
3	0	0	0	0	506	
4	0	0	0	0	504	
5	0	0	0	0	500	
6	0	0	0	0	493	
7	0	0	0	0	489	
8	0	0	0	0	491	
9	0	0	0	0	498	
10	0	0	0	0	501	
11	0	0	0	0	501	
12	0	0	0	0	502	
13	0	0	0	0	495	
14	0	0	0	0	487	
15	0	0	0	0	484	
0	0	0	0	0	483	
1	0	0	0	0	494	
2	0	0	0	0	502	
3	0	0	0	0	510	
4	0	0	0	0	510	
5	0	0	0	0	511	
6	0	0	0	0	510	
7	0	0	0	0	504	
8	0	0	0	0	497	
9	0	0	0	0	492	
10	0	0	0	0	489	
11	0	0	0	0	488	
12	0	0	0	0	484	
13	0	0	0	0	481	
14	0	0	0	0	476	
15	0	0	0	0	472	
0	0	0	0	0	473	
1	0	0	0	0	476	
2	0	0	0	0	480	
3	0	0	0	0	476	
4	0	0	0	0	472	
5	0	0	0	0	482	
6	0	0	0	0	503	
7	0	0	0	0	519	
8	0	0	0	0	525	
9	0	0	0	0	525	
10	0	0	0	0	527	
11	0	0	0	0	527	
12	0	0	0	0	528	
13	0	0	0	0	531	
14	0	0	0	0	536	
15	0	0	0	0	532	
0	0	0	0	0	531	
1	0	0	0	0	527	
2	0	0	0	0	524	
3	0	0	0	0	519	
4	0	0	0	0	516	
5	0	0	0	0	518	
6	0	0	0	0	530	
7	0	0	0	0	540	
8	0	0	0	0	554	
9	0	0	0	0	568	
10	0	0	0	0	575	
11	0	0	0	0	580	
12	0	0	0	0	578	
13	0	0	0	0	573	
14	0	0	0	0	564	
15	0	0	0	0	556	
0	0	0	0	0	553	
1	0	0	0	0	552	
2	0	0	0	0	552	
3	0	0	0	0	551	
4	0	0	0	0	550	
5	0	0	0	0	552	
6	0	0	0	0	551	
7	0	0	0	0	553	
8	0	0	0	0	556	
9	0	0	0	0	560	
10	0	0	0	0	562	
11	0	0	0	0	558	
12	0	0	0	0	559	
13	0	0	0	0	553	
14	0	0	0	0	545	
15	0	0	0	0	535	
0	0	0	0	0	526	
1	0	0	0	0	511	
2	0	0	0	0	496	
3	0	0	0	0	491	
4	0	0	0	0	492	
5	0	0	0	0	491	
6	0	0	0	0	486	
7	0	0	0	0	487	
8	0	0	0	0	485	
9	0	0	0	0	479	
10	0	0	0	0	474	
11	0	0	0	0	477	
12	0	0	0	0	471	
13	0	0	0	0	467	
14	0	0	0	0	468	
15	0	0	0	0	474	
0	0	0	0	0	480	
1	0	0	0	0	488	
2	0	0	0	0	489	
3	0	0	0	0	493	
4	0	0	0	0	492	
5	0	0	0	0	493	
6	0	0	0	0	496	
7	0	0	0	0	496	
8	0	0	0	0	492	
9	0	0	0	0	493	
10	0	0	0	0	505	
11	0	0	0	0	508	
12	0	0	0	0	506	
13	0	0	0	0	507	
14	0	0	0	0	507	
15	0	0	0	0	511	
0	0	0	0	0	510	
1	0	0	0	0	509	
2	0	0	0	0	507	
3	0	0	0	0	505	
4	0	0	0	0	506	
5	0	0	0	0	506	
6	0	0	0	0	506	
7	0	0	0	0	506	
8	0	0	0	0	504	
9	0	0	0	0	495	
10	0	0	0	0	483	
11	0	0	0	0	478	
12	0	0	0	0	478	
13	0	0	0	0	483	
14	0	0	0	0	489	
15	0	0	0	0	493	
0	0	0	0	0	496	
1	0	0	0	0	496	
2	0	0	0	0	494	
3	0	0	0	0	494	
4	0	0	0	0	494	
5	0	0	0	0	489	
6	0	0	0	0	489	
7	0	0	0	0	491	
8	0	0	0	0	491	
9	0	0	0	0	489	
10	0	0	0	0	492	
11	0	0	0	0	493	
12	0	0	0	0	494	
13	0	0	0	0	492	
14	0	0	0	0	492	
15	0	0	0	0	487	
0	0	0	0	0	483	
1	0	0	0	0	484	
2	0	0	0	0	490	
3	0	0	0	0	502	
4	0	0	0	0	504	
5	0	0	0	0	505	
6	0	0	0	0	510	
7	0	0	0	0	511	
8	0	0	0	0	503	
9	0	0	0	0	493	
10	0	0	0	0	485	
11	0	0	0	0	489	
12	0	0	0	0	488	
13	0	0	0	0	488	
14	0	0	0	0	492	
15	0	0	0	0	495	
0	0	0	0	0	499	
1	0	0	0	0	501	
2	0	0	0	0	505	
3	0	0	0	0	509	
4	0	0	0	0	513	
5	0	0	0	0	523	
6	0	0	0	0	544	
7	0	0	0	0	560	
8	0	0	0	0	573	
9	0	0	0	0	583	
10	0	0	0	0	600	
11	0	0	0	0	619	
12	0	0	0	0	633	
13	0	0	0	0	645	
14	0	0	0	0	659	
15	0	0	0	0	678	
0	0	0	0	0	696	
1	0	0	0	0	714	
2	0	0	0	0	732	
3	0	0	0	0	750	
4	0	0	0	0	766	
5	0	0	0	0	782	
6	0	0	0	0	793	
7	0	0	0	0	804	
8	0	0	0	0	814	
9	0	0	0	0	813	
10	0	0	0	0	809	
11	0	0	0	0	800	
12	0	0	0	0	779	
13	0	0	0	0	755	
14	0	0	0	0	727	
15	0	0	0	0	692	
0	0	0	0	0	656	
1	0	0	0	0	616	
2	0	0	0	0	569	
3	0	0	0	0	519	
4	0	0	0	0	472	
5	0	0	0	0	424	
6	0	0	0	0	376	
7	0	0	0	0	338	
8	0	0	0	0	308	
9	0	0	0	0	280	
10	0	0	0	0	263	
11	0	0	0	0	248	
12	0	0	0	0	239	
13	0	0	0	0	237	
14	0	0	0	0	238	
15	0	0	0	0	242	
0	0	0	0	0	245	
1	0	0	0	0	249	
2	0	0	0	0	254	
3	0	0	0	0	263	
4	0	0	0	0	271	
5	0	0	0	0	275	
6	0	0	0	0	285	
7	0	0	0	0	298	
8	0	0	0	0	314	
9	0	0	0	0	328	
10	0	0	0	0	336	
11	0	0	0	0	344	
12	0	0	0	0	350	
13	0	0	0	0	359	
14	0	0	0	0	376	
15	0	0	0	0	393	
0	0	0	0	0	400	
1	0	0	0	0	405	
2	0	0	0	0	414	
3	0	0	0	0	424	
4	0	0	0	0	428	
5	0	0	0	0	430	
6	0	0	0	0	435	
7	0	0	0	0	440	
8	0	0	0	0	450	
9	0	0	0	0	464	
10	0	0	0	0	470	
11	0	0	0	0	468	
12	0	0	0	0	466	
13	0	0	0	0	465	
14	0	0	0	0	469	
15	0	0	0	0	475	
0	0	0	0	0	481	
1	0	0	0	0	487	
2	0	0	0	0	488	
3	0	0	0	0	489	
4	0	0	0	0	496	
5	0	0	0	0	503	
6	0	0	0	0	506	
7	0	0	0	0	512	
8	0	0	0	0	519	
9	0	0	0	0	533	
10	0	0	0	0	540	
11	0	0	0	0	539	
12	0	0	0	0	539	
13	0	0	0	0	536	
14	0	0	0	0	533	
15	0	0	0	0	535	
0	0	0	0	0	537	
1	0	0	0	0	535	
2	0	0	0	0	529	
3	0	0	0	0	527	
4	0	0	0	0	528	
5	0	0	0	0	533	
6	0	0	0	0	535	
7	0	0	0	0	532	
8	0	0	0	0	528	
9	0	0	0	0	523	
10	0	0	0	0	524	
11	0	0	0	0	530	
12	0	0	0	0	532	
13	0	0	0	0	533	
14	0	0	0	0	534	
15	0	0	0	0	534	
0	0	0	0	0	539	
1	0	0	0	0	543	
2	0	0	0	0	548	
3	0	0	0	0	549	
4	0	0	0	0	546	
5	0	0	0	0	547	
6	0	0	0	0	553	
7	0	0	0	0	553	
8	0	0	0	0	550	
9	0	0	0	0	545	
10	0	0	0	0	536	
11	0	0	0	0	533	
12	0	0	0	0	533	
13	0	0	0	0	538	
14	0	0	0	0	539	
15	0	0	0	0	531	
0	0	0	0	0	525	
1	0	0	0	0	517	
2	0	0	0	0	516	
3	0	0	0	0	515	
4	0	0	0	0	518	
5	0	0	0	0	522	
6	0	0	0	0	522	
7	0	0	0	0	522	
8	0	0	0	0	519	
9	0	0	0	0	513	
10	0	0	0	0	511	
11	0	0	0	0	508	
12	0	0	0	0	509	
13	0	0	0	0	509	
14	0	0	0	0	507	
15	0	0	0	0	504	
0	0	0	0	0	503	
1	0	0	0	0	501	
2	0	0	0	0	492	
3	0	0	0	0	486	
4	0	0	0	0	490	
5	0	0	0	0	502	
6	0	0	0	0	513	
7	0	0	0	0	522	
8	0	0	0	0	520	
9	0	0	0	0	521	
10	0	0	0	0	521	
11	0	0	0	0	521	
12	0	0	0	0	527	
13	0	0	0	0	533	
14	0	0	0	0	544	
15	0	0	0	0	551	
0	0	0	0	0	547	
1	0	0	0	0	547	
2	0	0	0	0	552	
3	0	0	0	0	556	
4	0	0	0	0	559	
5	0	0	0	0	563	
6	0	0	0	0	561	
7	0	0	0	0	563	
8	0	0	0	0	568	
9	0	0	0	0	573	
10	0	0	0	0	573	
11	0	0	0	0	570	
12	0	0	0	0	571	
13	0	0	0	0	574	
14	0	0	0	0	579	
15	0	0	0	0	580	
0	0	0	0	0	578	
1	0	0	0	0	581	
2	0	0	0	0	583	
3	0	0	0	0	586	
4	0	0	0	0	588	
5	0	0	0	0	588	
6	0	0	0	0	586	
7	0	0	0	0	578	
8	0	0	0	0	575	
9	0	0	0	0	570	
10	0	0	0	0	566	
11	0	0	0	0	560	
12	0	0	0	0	551	
13	0	0	0	0	543	
14	0	0	0	0	535	
15	0	0	0	0	529	
0	0	0	0	0	525	
1	0	0	0	0	515	
2	0	0	0	0	513	
3	0	0	0	0	516	
4	0	0	0	0	519	
5	0	0	0	0	519	
6	0	0	0	0	522	
7	0	0	0	0	527	
8	0	0	0	0	530	
9	0	0	0	0	536	
10	0	0	0	0	540	
11	0	0	0	0	543	
12	0	0	0	0	547	
13	0	0	0	0	555	
14	0	0	0	0	569	
15	0	0	0	0	583	
0	0	0	0	0	593	
1	0	0	0	0	601	
2	0	0	0	0	609	
3	0	0	0	0	616	
4	0	0	0	0	619	
5	0	0	0	0	622	
6	0	0	0	0	623	
7	0	0	0	0	620	
8	0	0	0	0	612	
9	0	0	0	0	598	
10	0	0	0	0	582	
11	0	0	0	0	572	
12	0	0	0	0	565	
13	0	0	0	0	565	
14	0	0	0	0	558	
15	0	0	0	0	543	
0	0	0	0	0	533	
1	0	0	0	0	537	
2	0	0	0	0	549	
3	0	0	0	0	555	
4	0	0	0	0	556	
5	0	0	0	0	564	
6	0	0	0	0	572	
7	0	0	0	0	581	
8	0	0	0	0	586	
9	0	0	0	0	589	
10	0	0	0	0	590	
11	0	0	0	0	582	
12	0	0	0	0	569	
13	0	0	0	0	549	
14	0	0	0	0	545	
15	0	0	0	0	546	
0	0	0	0	0	543	
1	0	0	0	0	547	
2	0	0	0	0	551	
3	0	0	0	0	551	
4	0	0	0	0	543	
5	0	0	0	0	527	
6	0	0	0	0	526	
7	0	0	0	0	526	
8	0	0	0	0	519	
9	0	0	0	0	503	
10	0	0	0	0	498	
11	0	0	0	0	513	
12	0	0	0	0	534	
13	0	0	0	0	553	
14	0	0	0	0	560	
15	0	0	0	0	556	
0	0	0	0	0	551	
1	0	0	0	0	545	
2	0	0	0	0	541	
3	0	0	0	0	547	
4	0	0	0	0	547	
5	0	0	0	0	545	
6	0	0	0	0	535	
7	0	0	0	0	524	
8	0	0	0	0	514	
9	0	0	0	0	510	
10	0	0	0	0	511	
11	0	0	0	0	514	
12	0	0	0	0	521	
13	0	0	0	0	526	
14	0	0	0	0	522	
15	0	0	0	0	522	
0	0	0	0	0	522	
1	0	0	0	0	526	
2	0	0	0	0	526	
3	0	0	0	0	518	
4	0	0	0	0	504	
5	0	0	0	0	495	
6	0	0	0	0	489	
7	0	0	0	0	482	
8	0	0	0	0	480	
9	0	0	0	0	484	
10	0	0	0	0	491	
11	0	0	0	0	490	
12	0	0	0	0	482	
13	0	0	0	0	468	
14	0	0	0	0	449	
15	0	0	0	0	425	
0	0	0	0	0	411	
1	0	0	0	0	405	
2	0	0	0	0	404	
3	0	0	0	0	408	
4	0	0	0	0	415	
5	0	0	0	0	435	
6	0	0	0	0	464	
7	0	0	0	0	487	
8	0	0	0	0	500	
9	0	0	0	0	501	
10	0	0	0	0	498	
11	0	0	0	0	497	
12	0	0	0	0	495	
13	0	0	0	0	492	
14	0	0	0	0	491	
15	0	0	0	0	483	
0	0	0	0	0	478	
1	0	0	0	0	474	
2	0	0	0	0	472	
3	0	0	0	0	475	
4	0	0	0	0	475	
5	0	0	0	0	474	
6	0	0	0	0	480	
7	0	0	0	0	480	
8	0	0	0	0	476	
9	0	0	0	0	471	
10	0	0	0	0	464	
11	0	0	0	0	460	
12	0	0	0	0	458	
13	0	0	0	0	459	
14	0	0	0	0	455	
15	0	0	0	0	454	
0	0	0	0	0	455	
1	0	0	0	0	456	
2	0	0	0	0	451	
3	0	0	0	0	444	
4	0	0	0	0	454	
5	0	0	0	0	472	
6	0	0	0	0	489	
7	0	0	0	0	497	
8	0	0	0	0	499	
9	0	0	0	0	501	
10	0	0	0	0	502	
11	0	0	0	0	499	
12	0	0	0	0	500	
13	0	0	0	0	507	
14	0	0	0	0	511	
15	0	0	0	0	515	
0	0	0	0	0	518	
1	0	0	0	0	514	
2	0	0	0	0	512	
3	0	0	0	0	501	
4	0	0	0	0	497	
5	0	0	0	0	490	
6	0	0	0	0	484	
7	0	0	0	0	479	
8	0	0	0	0	468	
9	0	0	0	0	464	
10	0	0	0	0	463	
11	0	0	0	0	467	
12	0	0	0	0	473	
13	0	0	0	0	469	
14	0	0	0	0	467	
15	0	0	0	0	465	
0	0	0	0	0	467	
1	0	0	0	0	469	
2	0	0	0	0	467	
3	0	0	0	0	468	
4	0	0	0	0	480	
5	0	0	0	0	489	
6	0	0	0	0	497	
7	0	0	0	0	508	
8	0	0	0	0	515	
9	0	0	0	0	517	
10	0	0	0	0	514	
11	0	0	0	0	510	
12	0	0	0	0	509	
13	0	0	0	0	511	
14	0	0	0	0	511	
15	0	0	0	0	516	
0	0	0	0	0	522	
1	0	0	0	0	526	
2	0	0	0	0	524	
3	0	0	0	0	522	
4	0	0	0	0	527	
5	0	0	0	0	526	
6	0	0	0	0	524	
7	0	0	0	0	516	
8	0	0	0	0	501	
9	0	0	0	0	482	
10	0	0	0	0	472	
11	0	0	0	0	464	
12	0	0	0	0	470	
13	0	0	0	0	470	
14	0	0	0	0	466	
15	0	0	0	0	464	
0	0	0	0	0	463	
1	0	0	0	0	469	
2	0	0	0	0	481	
3	0	0	0	0	500	
4	0	0	0	0	515	
5	0	0	0	0	512	
6	0	0	0	0	508	
7	0	0	0	0	505	
8	0	0	0	0	497	
9	0	0	0	0	484	
10	0	0	0	0	473	
11	0	0	0	0	465	
12	0	0	0	0	459	
13	0	0	0	0	468	
14	0	0	0	0	483	
15	0	0	0	0	494	
0	0	0	0	0	496	
1	0	0	0	0	498	
2	0	0	0	0	509	
3	0	0	0	0	518	
4	0	0	0	0	521	
5	0	0	0	0	517	
6	0	0	0	0	508	
7	0	0	0	0	499	
8	0	0	0	0	495	
9	0	0	0	0	495	
10	0	0	0	0	504	
11	0	0	0	0	516	
12	0	0	0	0	528	
13	0	0	0	0	539	
14	0	0	0	0	543	
15	0	0	0	0	544	
0	0	0	0	0	539	
1	0	0	0	0	528	
2	0	0	0	0	525	
3	0	0	0	0	523	
4	0	0	0	0	529	
5	0	0	0	0	535	
6	0	0	0	0	544	
7	0	0	0	0	552	
8	0	0	0	0	553	
9	0	0	0	0	545	
10	0	0	0	0	544	
11	0	0	0	0	543	
12	0	0	0	0	541	
13	0	0	0	0	538	
14	0	0	0	0	534	
15	0	0	0	0	528	
0	0	0	0	0	521	
1	0	0	0	0	515	
2	0	0	0	0	504	
3	0	0	0	0	496	
4	0	0	0	0	496	
5	0	0	0	0	501	
6	0	0	0	0	509	
7	0	0	0	0	516	
8	0	0	0	0	524	
9	0	0	0	0	527	
10	0	0	0	0	527	
11	0	0	0	0	527	
12	0	0	0	0	532	
13	0	0	0	0	542	
14	0	0	0	0	552	
15	0	0	0	0	557	
0	0	0	0	0	555	
1	0	0	0	0	542	
2	0	0	0	0	526	
3	0	0	0	0	508	
4	0	0	0	0	497	
5	0	0	0	0	490	
6	0	0	0	0	483	
7	0	0	0	0	481	
8	0	0	0	0	487	
9	0	0	0	0	491	
10	0	0	0	0	493	
11	0	0	0	0	499	
12	0	0	0	0	502	
13	0	0	0	0	503	
14	0	0	0	0	511	
15	0	0	0	0	518	
0	0	0	0	0	516	
1	0	0	0	0	513	
2	0	0	0	0	510	
3	0	0	0	0	509	
4	0	0	0	0	515	
5	0	0	0	0	519	
6	0	0	0	0	513	
7	0	0	0	0	509	
8	0	0	0	0	507	
9	0	0	0	0	505	
10	0	0	0	0	514	
11	0	0	0	0	524	
12	0	0	0	0	530	
13	0	0	0	0	536	
14	0	0	0	0	532	
15	0	0	0	0	520	
0	0	0	0	0	518	
1	0	0	0	0	528	
2	0	0	0	0	537	
3	0	0	0	0	545	
4	0	0	0	0	543	
5	0	0	0	0	535	
6	0	0	0	0	541	
7	0	0	0	0	548	
8	0	0	0	0	546	
9	0	0	0	0	547	
10	0	0	0	0	545	
11	0	0	0	0	543	
12	0	0	0	0	536	
13	0	0	0	0	525	
14	0	0	0	0	521	
15	0	0	0	0	520	
0	0	0	0	0	513	
1	0	0	0	0	508	
2	0	0	0	0	506	
3	0	0	0	0	504	
4	0	0	0	0	496	
5	0	0	0	0	494	
6	0	0	0	0	495	
7	0	0	0	0	496	
8	0	0	0	0	500	
9	0	0	0	0	504	
10	0	0	0	0	495	
11	0	0	0	0	486	
12	0	0	0	0	480	
13	0	0	0	0	487	
14	0	0	0	0	503	
15	0	0	0	0	515	
0	0	0	0	0	523	
1	0	0	0	0	519	
2	0	0	0	0	516	
3	0	0	0	0	512	
4	0	0	0	0	508	
5	0	0	0	0	507	
6	0	0	0	0	511	
7	0	0	0	0	508	
8	0	0	0	0	498	
9	0	0	0	0	493	
10	0	0	0	0	498	
11	0	0	0	0	512	
12	0	0	0	0	526	
13	0	0	0	0	537	
14	0	0	0	0	540	
15	0	0	0	0	539	
0	0	0	0	0	537	
1	0	0	0	0	538	
2	0	0	0	0	538	
3	0	0	0	0	536	
4	0	0	0	0	536	
5	0	0	0	0	539	
6	0	0	0	0	543	
7	0	0	0	0	546	
8	0	0	0	0	548	
9	0	0	0	0	551	
10	0	0	0	0	550	
11	0	0	0	0	550	
12	0	0	0	0	548	
13	0	0	0	0	542	
14	0	0	0	0	534	
15	0	0	0	0	537	
0	0	0	0	0	538	
1	0	0	0	0	532	
2	0	0	0	0	530	
3	0	0	0	0	533	
4	0	0	0	0	531	
5	0	0	0	0	526	
6	0	0	0	0	524	
7	0	0	0	0	518	
8	0	0	0	0	519	
9	0	0	0	0	518	
10	0	0	0	0	513	
11	0	0	0	0	508	
12	0	0	0	0	506	
13	0	0	0	0	508	
14	0	0	0	0	515	
15	0	0	0	0	519	
0	0	0	0	0	518	
1	0	0	0	0	518	
2	0	0	0	0	512	
3	0	0	0	0	511	
4	0	0	0	0	510	
5	0	0	0	0	506	
6	0	0	0	0	499	
7	0	0	0	0	493	
8	0	0	0	0	485	
9	0	0	0	0	481	
10	0	0	0	0	477	
11	0	0	0	0	476	
12	0	0	0	0	481	
13	0	0	0	0	486	
14	0	0	0	0	488	
15	0	0	0	0	490	
0	0	0	0	0	493	
1	0	0	0	0	499	
2	0	0	0	0	502	
3	0	0	0	0	502	
4	0	0	0	0	498	
5	0	0	0	0	500	
6	0	0	0	0	500	
7	0	0	0	0	493	
8	0	0	0	0	487	
9	0	0	0	0	494	
10	0	0	0	0	501	
11	0	0	0	0	499	
12	0	0	0	0	492	
13	0	0	0	0	498	
14	0	0	0	0	500	
15	0	0	0	0	495	
0	0	0	0	0	495	
1	0	0	0	0	502	
2	0	0	0	0	503	
3	0	0	0	0	499	
4	0	0	0	0	492	
5	0	0	0	0	487	
6	0	0	0	0	487	
7	0	0	0	0	483	
8	0	0	0	0	480	
9	0	0	0	0	493	
10	0	0	0	0	512	
11	0	0	0	0	530	
12	0	0	0	0	544	
13	0	0	0	0	553	
14	0	0	0	0	558	
15	0	0	0	0	549	
0	0	0	0	0	542	
1	0	0	0	0	537	
2	0	0	0	0	534	
3	0	0	0	0	527	
4	0	0	0	0	522	
5	0	0	0	0	521	
6	0	0	0	0	523	
7	0	0	0	0	522	
8	0	0	0	0	518	
9	0	0	0	0	516	
10	0	0	0	0	517	
11	0	0	0	0	513	
12	0	0	0	0	512	
13	0	0	0	0	510	
14	0	0	0	0	512	
15	0	0	0	0	513	
0	0	0	0	0	515	
1	0	0	0	0	518	
2	0	0	0	0	517	
3	0	0	0	0	513	
4	0	0	0	0	510	
5	0	0	0	0	516	
6	0	0	0	0	522	
7	0	0	0	0	526	
8	0	0	0	0	521	
9	0	0	0	0	513	
10	0	0	0	0	513	
11	0	0	0	0	514	
12	0	0	0	0	513	
13	0	0	0	0	511	
14	0	0	0	0	508	
15	0	0	0	0	498	
0	0	0	0	0	491	
1	0	0	0	0	497	
2	0	0	0	0	501	
3	0	0	0	0	501	
4	0	0	0	0	498	
5	0	0	0	0	498	
6	0	0	0	0	501	
7	0	0	0	0	511	
8	0	0	0	0	527	
9	0	0	0	0	542	
10	0	0	0	0	556	
11	0	0	0	0	571	
12	0	0	0	0	583	
13	0	0	0	0	593	
14	0	0	0	0	609	
15	0	0	0	0	626	
0	0	0	0	0	643	
1	0	0	0	0	661	
2	0	0	0	0	678	
3	0	0	0	0	692	
4	0	0	0	0	703	
5	0	0	0	0	711	
6	0	0	0	0	731	
7	0	0	0	0	750	
8	0	0	0	0	760	
9	0	0	0	0	767	
10	0	0	0	0	761	
11	0	0	0	0	752	
12	0	0	0	0	739	
13	0	0	0	0	728	
14	0	0	0	0	726	
15	0	0	0	0	723	
0	0	0	0	0	713	
1	0	0	0	0	702	
2	0	0	0	0	683	
3	0	0	0	0	655	
4	0	0	0	0	616	
5	0	0	0	0	566	
6	0	0	0	0	523	
7	0	0	0	0	476	
8	0	0	0	0	428	
9	0	0	0	0	383	
10	0	0	0	0	343	
11	0	0	0	0	308	
12	0	0	0	0	282	
13	0	0	0	0	267	
14	0	0	0	0	257	
15	0	0	0	0	243	
0	0	0	0	0	229	
1	0	0	0	0	222	
2	0	0	0	0	220	
3	0	0	0	0	221	
4	0	0	0	0	222	
5	0	0	0	0	224	
6	0	0	0	0	229	
7	0	0	0	0	236	
8	0	0	0	0	246	
9	0	0	0	0	258	
10	0	0	0	0	271	
11	0	0	0	0	292	
12	0	0	0	0	310	
13	0	0	0	0	323	
14	0	0	0	0	340	
15	0	0	0	0	352	
0	0	0	0	0	366	
1	0	0	0	0	383	
2	0	0	0	0	397	
3	0	0	0	0	412	
4	0	0	0	0	425	
5	0	0	0	0	437	
6	0	0	0	0	447	
7	0	0	0	0	453	
8	0	0	0	0	465	
9	0	0	0	0	472	
10	0	0	0	0	487	
11	0	0	0	0	497	
12	0	0	0	0	504	
13	0	0	0	0	506	
14	0	0	0	0	504	
15	0	0	0	0	499	
0	0	0	0	0	493	
1	0	0	0	0	489	
2	0	0	0	0	484	
3	0	0	0	0	487	
4	0	0	0	0	497	
5	0	0	0	0	505	
6	0	0	0	0	510	
7	0	0	0	0	511	
8	0	0	0	0	516	
9	0	0	0	0	513	
10	0	0	0	0	511	
11	0	0	0	0	508	
12	0	0	0	0	508	
13	0	0	0	0	512	
14	0	0	0	0	515	
15	0	0	0	0	510	
0	0	0	0	0	506	
1	0	0	0	0	507	
2	0	0	0	0	509	
3	0	0	0	0	513	
4	0	0	0	0	515	
5	0	0	0	0	519	
6	0	0	0	0	523	
7	0	0	0	0	524	
8	0	0	0	0	523	
9	0	0	0	0	521	
10	0	0	0	0	518	
11	0	0	0	0	514	
12	0	0	0	0	512	
13	0	0	0	0	512	
14	0	0	0	0	519	
15	0	0	0	0	521	
0	0	0	0	0	524	
1	0	0	0	0	525	
2	0	0	0	0	528	
3	0	0	0	0	530	
4	0	0	0	0	531	
5	0	0	0	0	531	
6	0	0	0	0	526	
7	0	0	0	0	517	
8	0	0	0	0	512	
9	0	0	0	0	514	
10	0	0	0	0	524	
11	0	0	0	0	527	
12	0	0	0	0	527	
13	0	0	0	0	529	
14	0	0	0	0	528	
15	0	0	0	0	525	
0	0	0	0	0	531	
1	0	0	0	0	532	
2	0	0	0	0	529	
3	0	0	0	0	526	
4	0	0	0	0	523	
5	0	0	0	0	523	
6	0	0	0	0	524	
7	0	0	0	0	525	
8	0	0	0	0	528	
9	0	0	0	0	527	
10	0	0	0	0	523	
11	0	0	0	0	521	
12	0	0	0	0	518	
13	0	0	0	0	518	
14	0	0	0	0	521	
15	0	0	0	0	524	
0	0	0	0	0	530	
1	0	0	0	0	533	
2	0	0	0	0	536	
3	0	0	0	0	539	
4	0	0	0	0	541	
5	0	0	0	0	540	
6	0	0	0	0	535	
7	0	0	0	0	536	
8	0	0	0	0	542	
9	0	0	0	0	554	
10	0	0	0	0	563	
11	0	0	0	0	570	
12	0	0	0	0	571	
13	0	0	0	0	564	
14	0	0	0	0	546	
15	0	0	0	0	534	
0	0	0	0	0	530	
1	0	0	0	0	531	
2	0	0	0	0	534	
3	0	0	0	0	532	
4	0	0	0	0	535	
5	0	0	0	0	543	
6	0	0	0	0	543	
7	0	0	0	0	540	
8	0	0	0	0	536	
9	0	0	0	0	529	
10	0	0	0	0	523	
11	0	0	0	0	530	
12	0	0	0	0	540	
13	0	0	0	0	548	
14	0	0	0	0	555	
15	0	0	0	0	560	
0	0	0	0	0	559	
1	0	0	0	0	550	
2	0	0	0	0	546	
3	0	0	0	0	546	
4	0	0	0	0	543	
5	0	0	0	0	538	
6	0	0	0	0	531	
7	0	0	0	0	524	
8	0	0	0	0	523	
9	0	0	0	0	525	
10	0	0	0	0	537	
11	0	0	0	0	544	
12	0	0	0	0	545	
13	0	0	0	0	551	
14	0	0	0	0	561	
15	0	0	0	0	564	
0	0	0	0	0	562	
1	0	0	0	0	562	
2	0	0	0	0	562	
3	0	0	0	0	563	
4	0	0	0	0	572	
5	0	0	0	0	581	
6	0	0	0	0	587	
7	0	0	0	0	587	
8	0	0	0	0	585	
9	0	0	0	0	582	
10	0	0	0	0	578	
11	0	0	0	0	572	
12	0	0	0	0	571	
13	0	0	0	0	570	
14	0	0	0	0	568	
15	0	0	0	0	570	
0	0	0	0	0	571	
1	0	0	0	0	563	
2	0	0	0	0	564	
3	0	0	0	0	573	
4	0	0	0	0	582	
5	0	0	0	0	587	
6	0	0	0	0	585	
7	0	0	0	0	581	
8	0	0	0	0	581	
9	0	0	0	0	583	
10	0	0	0	0	584	
11	0	0	0	0	585	
12	0	0	0	0	585	
13	0	0	0	0	586	
14	0	0	0	0	585	
15	0	0	0	0	582	
0	0	0	0	0	582	
1	0	0	0	0	580	
2	0	0	0	0	583	
3	0	0	0	0	581	
4	0	0	0	0	579	
5	0	0	0	0	580	
6	0	0	0	0	584	
7	0	0	0	0	586	
8	0	0	0	0	590	
9	0	0	0	0	592	
10	0	0	0	0	593	
11	0	0	0	0	596	
12	0	0	0	0	597	
13	0	0	0	0	600	
14	0	0	0	0	606	
15	0	0	0	0	600	
0	0	0	0	0	586	
1	0	0	0	0	578	
2	0	0	0	0	572	
3	0	0	0	0	564	
4	0	0	0	0	562	
5	0	0	0	0	563	
6	0	0	0	0	566	
7	0	0	0	0	568	
8	0	0	0	0	572	
9	0	0	0	0	575	
10	0	0	0	0	576	
11	0	0	0	0	572	
12	0	0	0	0	565	
13	0	0	0	0	562	
14	0	0	0	0	554	
15	0	0	0	0	549	
0	0	0	0	0	548	
1	0	0	0	0	544	
2	0	0	0	0	539	
3	0	0	0	0	539	
4	0	0	0	0	542	
5	0	0	0	0	546	
6	0	0	0	0	548	
7	0	0	0	0	548	
8	0	0	0	0	548	
9	0	0	0	0	544	
10	0	0	0	0	540	
11	0	0	0	0	529	
12	0	0	0	0	528	
13	0	0	0	0	528	
14	0	0	0	0	523	
15	0	0	0	0	514	
0	0	0	0	0	504	
1	0	0	0	0	499	
2	0	0	0	0	495	
3	0	0	0	0	496	
4	0	0	0	0	493	
5	0	0	0	0	486	
6	0	0	0	0	481	
7	0	0	0	0	482	
8	0	0	0	0	483	
9	0	0	0	0	483	
10	0	0	0	0	486	
11	0	0	0	0	493	
12	0	0	0	0	499	
13	0	0	0	0	496	
14	0	0	0	0	483	
15	0	0	0	0	468	
0	0	0	0	0	463	
1	0	0	0	0	463	
2	0	0	0	0	461	
3	0	0	0	0	462	
4	0	0	0	0	469	
5	0	0	0	0	475	
6	0	0	0	0	480	
7	0	0	0	0	485	
8	0	0	0	0	483	
9	0	0	0	0	478	
10	0	0	0	0	479	
11	0	0	0	0	476	
12	0	0	0	0	468	
13	0	0	0	0	465	
14	0	0	0	0	464	
15	0	0	0	0	465	
0	0	0	0	0	467	
1	0	0	0	0	465	
2	0	0	0	0	463	
3	0	0	0	0	464	
4	0	0	0	0	466	
5	0	0	0	0	464	
6	0	0	0	0	464	
7	0	0	0	0	460	
8	0	0	0	0	455	
9	0	0	0	0	447	
10	0	0	0	0	434	
11	0	0	0	0	430	
12	0	0	0	0	433	
13	0	0	0	0	435	
14	0	0	0	0	439	
15	0	0	0	0	445	
0	0	0	0	0	454	
1	0	0	0	0	460	
2	0	0	0	0	461	
3	0	0	0	0	463	
4	0	0	0	0	469	
5	0	0	0	0	475	
6	0	0	0	0	472	
7	0	0	0	0	467	
8	0	0	0	0	460	
9	0	0	0	0	453	
10	0	0	0	0	449	
11	0	0	0	0	446	
12	0	0	0	0	446	
13	0	0	0	0	449	
14	0	0	0	0	452	
15	0	0	0	0	453	
0	0	0	0	0	455	
1	0	0	0	0	457	
2	0	0	0	0	455	
3	0	0	0	0	457	
4	0	0	0	0	460	
5	0	0	0	0	461	
6	0	0	0	0	465	
7	0	0	0	0	472	
8	0	0	0	0	471	
9	0	0	0	0	471	
10	0	0	0	0	468	
11	0	0	0	0	470	
12	0	0	0	0	470	
13	0	0	0	0	472	
14	0	0	0	0	476	
15	0	0	0	0	477	
0	0	0	0	0	471	
1	0	0	0	0	466	
2	0	0	0	0	468	
3	0	0	0	0	475	
4	0	0	0	0	480	
5	0	0	0	0	477	
6	0	0	0	0	472	
7	0	0	0	0	464	
8	0	0	0	0	455	
9	0	0	0	0	455	
10	0	0	0	0	457	
11	0	0	0	0	461	
12	0	0	0	0	467	
13	0	0	0	0	470	
14	0	0	0	0	471	
15	0	0	0	0	482	
0	0	0	0	0	495	
1	0	0	0	0	497	
2	0	0	0	0	491	
3	0	0	0	0	490	
4	0	0	0	0	491	
5	0	0	0	0	491	
6	0	0	0	0	490	
7	0	0	0	0	487	
8	0	0	0	0	487	
9	0	0	0	0	484	
10	0	0	0	0	478	
11	0	0	0	0	470	
12	0	0	0	0	470	
13	0	0	0	0	476	
14	0	0	0	0	476	
15	0	0	0	0	470	
0	0	0	0	0	465	
1	0	0	0	0	466	
2	0	0	0	0	476	
3	0	0	0	0	489	
4	0	0	0	0	497	
5	0	0	0	0	505	
6	0	0	0	0	509	
7	0	0	0	0	510	
8	0	0	0	0	513	
9	0	0	0	0	510	
10	0	0	0	0	508	
11	0	0	0	0	499	
12	0	0	0	0	489	
13	0	0	0	0	481	
14	0	0	0	0	480	
15	0	0	0	0	484	
0	0	0	0	0	489	
1	0	0	0	0	489	
2	0	0	0	0	486	
3	0	0	0	0	492	
4	0	0	0	0	494	
5	0	0	0	0	490	
6	0	0	0	0	488	
7	0	0	0	0	487	
8	0	0	0	0	487	
9	0	0	0	0	483	
10	0	0	0	0	478	
11	0	0	0	0	483	
12	0	0	0	0	489	
13	0	0	0	0	487	
14	0	0	0	0	491	
15	0	0	0	0	493	
0	0	0	0	0	494	
1	0	0	0	0	495	
2	0	0	0	0	496	
3	0	0	0	0	493	
4	0	0	0	0	492	
5	0	0	0	0	492	
6	0	0	0	0	493	
7	0	0	0	0	495	
8	0	0	0	0	493	
9	0	0	0	0	486	
10	0	0	0	0	486	
11	0	0	0	0	495	
12	0	0	0	0	501	
13	0	0	0	0	506	
14	0	0	0	0	509	
15	0	0	0	0	509	
0	0	0	0	0	503	
1	0	0	0	0	499	
2	0	0	0	0	496	
3	0	0	0	0	495	
4	0	0	0	0	497	
5	0	0	0	0	503	
6	0	0	0	0	504	
7	0	0	0	0	504	
8	0	0	0	0	505	
9	0	0	0	0	505	
10	0	0	0	0	507	
11	0	0	0	0	505	
12	0	0	0	0	498	
13	0	0	0	0	489	
14	0	0	0	0	482	
15	0	0	0	0	476	
0	0	0	0	0	472	
1	0	0	0	0	474	
2	0	0	0	0	484	
3	0	0	0	0	498	
4	0	0	0	0	506	
5	0	0	0	0	509	
6	0	0	0	0	508	
7	0	0	0	0	506	
8	0	0	0	0	503	
9	0	0	0	0	500	
10	0	0	0	0	497	
11	0	0	0	0	497	
12	0	0	0	0	498	
13	0	0	0	0	496	
14	0	0	0	0	496	
15	0	0	0	0	494	
0	0	0	0	0	495	
1	0	0	0	0	495	
2	0	0	0	0	496	
3	0	0	0	0	494	
4	0	0	0	0	496	
5	0	0	0	0	500	
6	0	0	0	0	504	
7	0	0	0	0	508	
8	0	0	0	0	509	
9	0	0	0	0	511	
10	0	0	0	0	510	
11	0	0	0	0	507	
12	0	0	0	0	506	
13	0	0	0	0	508	
14	0	0	0	0	512	
15	0	0	0	0	511	
0	0	0	0	0	506	
1	0	0	0	0	497	
2	0	0	0	0	494	
3	0	0	0	0	494	
4	0	0	0	0	493	
5	0	0	0	0	493	
6	0	0	0	0	496	
7	0	0	0	0	502	
8	0	0	0	0	506	
9	0	0	0	0	510	
10	0	0	0	0	512	
11	0	0	0	0	517	
12	0	0	0	0	522	
13	0	0	0	0	527	
14	0	0	0	0	528	
15	0	0	0	0	525	
0	0	0	0	0	517	
1	0	0	0	0	509	
2	0	0	0	0	502	
3	0	0	0	0	499	
4	0	0	0	0	502	
5	0	0	0	0	504	
6	0	0	0	0	505	
7	0	0	0	0	502	
8	0	0	0	0	508	
9	0	0	0	0	517	
10	0	0	0	0	524	
11	0	0	0	0	530	
12	0	0	0	0	530	
13	0	0	0	0	524	
14	0	0	0	0	520	
15	0	0	0	0	523	
0	0	0	0	0	524	
1	0	0	0	0	525	
2	0	0	0	0	528	
3	0	0	0	0	528	
4	0	0	0	0	528	
5	0	0	0	0	528	
6	0	0	0	0	530	
7	0	0	0	0	527	
8	0	0	0	0	521	
9	0	0	0	0	512	
10	0	0	0	0	504	
11	0	0	0	0	500	
12	0	0	0	0	499	
13	0	0	0	0	504	
14	0	0	0	0	510	
15	0	0	0	0	507	
0	0	0	0	0	507	
1	0	0	0	0	513	
2	0	0	0	0	516	
3	0	0	0	0	512	
4	0	0	0	0	510	
5	0	0	0	0	506	
6	0	0	0	0	505	
7	0	0	0	0	505	
8	0	0	0	0	497	
9	0	0	0	0	491	
10	0	0	0	0	491	
11	0	0	0	0	492	
12	0	0	0	0	489	
13	0	0	0	0	487	
14	0	0	0	0	483	
15	0	0	0	0	479	
0	0	0	0	0	481	
1	0	0	0	0	481	
2	0	0	0	0	477	
3	0	0	0	0	476	
4	0	0	0	0	480	
5	0	0	0	0	482	
6	0	0	0	0	482	
7	0	0	0	0	483	
8	0	0	0	0	489	
9	0	0	0	0	495	
10	0	0	0	0	499	
11	0	0	0	0	499	
12	0	0	0	0	498	
13	0	0	0	0	498	
14	0	0	0	0	497	
15	0	0	0	0	493	
0	0	0	0	0	495	
1	0	0	0	0	497	
2	0	0	0	0	499	
3	0	0	0	0	501	
4	0	0	0	0	499	
5	0	0	0	0	494	
6	0	0	0	0	489	
7	0	0	0	0	489	
8	0	0	0	0	488	
9	0	0	0	0	491	
10	0	0	0	0	496	
11	0	0	0	0	492	
12	0	0	0	0	487	
13	0	0	0	0	489	
14	0	0	0	0	495	
15	0	0	0	0	502	
0	0	0	0	0	505	
1	0	0	0	0	506	
2	0	0	0	0	505	
3	0	0	0	0	506	
4	0	0	0	0	509	
5	0	0	0	0	515	
6	0	0	0	0	519	
7	0	0	0	0	516	
8	0	0	0	0	512	
9	0	0	0	0	511	
10	0	0	0	0	515	
11	0	0	0	0	516	
12	0	0	0	0	514	
13	0	0	0	0	507	
14	0	0	0	0	503	
15	0	0	0	0	507	
0	0	0	0	0	507	
1	0	0	0	0	507	
2	0	0	0	0	506	
3	0	0	0	0	502	
4	0	0	0	0	505	
5	0	0	0	0	511	
6	0	0	0	0	518	
7	0	0	0	0	519	
8	0	0	0	0	517	
9	0	0	0	0	512	
10	0	0	0	0	511	
11	0	0	0	0	510	
12	0	0	0	0	512	
13	0	0	0	0	511	
14	0	0	0	0	505	
15	0	0	0	0	501	
0	0	0	0	0	503	
1	0	0	0	0	504	
2	0	0	0	0	504	
3	0	0	0	0	506	
4	0	0	0	0	508	
5	0	0	0	0	510	
6	0	0	0	0	519	
7	0	0	0	0	526	
8	0	0	0	0	532	
9	0	0	0	0	542	
10	0	0	0	0	561	
11	0	0	0	0	582	
12	0	0	0	0	595	
13	0	0	0	0	610	
14	0	0	0	0	624	
15	0	0	0	0	640	
0	0	0	0	0	653	
1	0	0	0	0	664	
2	0	0	0	0	683	
3	0	0	0	0	702	
4	0	0	0	0	718	
5	0	0	0	0	729	
6	0	0	0	0	731	
7	0	0	0	0	738	
8	0	0	0	0	749	
9	0	0	0	0	765	
10	0	0	0	0	779	
11	0	0	0	0	788	
12	0	0	0	0	792	
13	0	0	0	0	790	
14	0	0	0	0	780	
15	0	0	0	0	767	
0	0	0	0	0	745	
1	0	0	0	0	718	
2	0	0	0	0	694	
3	0	0	0	0	665	
4	0	0	0	0	637	
5	0	0	0	0	596	
6	0	0	0	0	549	
7	0	0	0	0	496	
8	0	0	0	0	446	
9	0	0	0	0	403	
10	0	0	0	0	368	
11	0	0	0	0	339	
12	0	0	0	0	316	
13	0	0	0	0	298	
14	0	0	0	0	289	
15	0	0	0	0	283	
0	0	0	0	0	282	
1	0	0	0	0	284	
2	0	0	0	0	277	
3	0	0	0	0	268	
4	0	0	0	0	266	
5	0	0	0	0	271	
6	0	0	0	0	280	
7	0	0	0	0	288	
8	0	0	0	0	292	
9	0	0	0	0	296	
10	0	0	0	0	303	
11	0	0	0	0	312	
12	0	0	0	0	316	
13	0	0	0	0	326	
14	0	0	0	0	339	
15	0	0	0	0	355	
0	0	0	0	0	371	
1	0	0	0	0	388	
2	0	0	0	0	400	
3	0	0	0	0	408	
4	0	0	0	0	424	
5	0	0	0	0	441	
6	0	0	0	0	457	
7	0	0	0	0	474	
8	0	0	0	0	485	
9	0	0	0	0	491	
10	0	0	0	0	495	
11	0	0	0	0	501	
12	0	0	0	0	503	
13	0	0	0	0	503	
14	0	0	0	0	501	
15	0	0	0	0	501	
0	0	0	0	0	506	
1	0	0	0	0	507	
2	0	0	0	0	504	
3	0	0	0	0	502	
4	0	0	0	0	500	
5	0	0	0	0	496	
6	0	0	0	0	491	
7	0	0	0	0	487	
8	0	0	0	0	489	
9	0	0	0	0	500	
10	0	0	0	0	516	
11	0	0	0	0	531	
12	0	0	0	0	539	
13	0	0	0	0	540	
14	0	0	0	0	539	
15	0	0	0	0	538	
0	0	0	0	0	535	
1	0	0	0	0	534	
2	0	0	0	0	531	
3	0	0	0	0	529	
4	0	0	0	0	529	
5	0	0	0	0	529	
6	0	0	0	0	529	
7	0	0	0	0	524	
8	0	0	0	0	520	
9	0	0	0	0	520	
10	0	0	0	0	523	
11	0	0	0	0	518	
12	0	0	0	0	512	
13	0	0	0	0	514	
14	0	0	0	0	518	
15	0	0	0	0	524	
0	0	0	0	0	527	
1	0	0	0	0	525	
2	0	0	0	0	519	
3	0	0	0	0	519	
4	0	0	0	0	517	
5	0	0	0	0	518	
6	0	0	0	0	522	
7	0	0	0	0	517	
8	0	0	0	0	516	
9	0	0	0	0	516	
10	0	0	0	0	518	
11	0	0	0	0	519	
12	0	0	0	0	515	
13	0	0	0	0	518	
14	0	0	0	0	520	
15	0	0	0	0	519	
0	0	0	0	0	521	
1	0	0	0	0	528	
2	0	0	0	0	534	
3	0	0	0	0	539	
4	0	0	0	0	542	
5	0	0	0	0	545	
6	0	0	0	0	545	
7	0	0	0	0	541	
8	0	0	0	0	536	
9	0	0	0	0	533	
10	0	0	0	0	527	
11	0	0	0	0	522	
12	0	0	0	0	522	
13	0	0	0	0	523	
14	0	0	0	0	523	
15	0	0	0	0	531	
0	0	0	0	0	532	
1	0	0	0	0	529	
2	0	0	0	0	523	
3	0	0	0	0	524	
4	0	0	0	0	523	
5	0	0	0	0	525	
6	0	0	0	0	534	
7	0	0	0	0	537	
8	0	0	0	0	536	
9	0	0	0	0	536	
10	0	0	0	0	536	
11	0	0	0	0	533	
12	0	0	0	0	531	
13	0	0	0	0	536	
14	0	0	0	0	536	
15	0	0	0	0	533	
0	0	0	0	0	530	
1	0	0	0	0	524	
2	0	0	0	0	521	
3	0	0	0	0	521	
4	0	0	0	0	524	
5	0	0	0	0	529	
6	0	0	0	0	531	
7	0	0	0	0	533	
8	0	0	0	0	532	
9	0	0	0	0	529	
10	0	0	0	0	531	
11	0	0	0	0	536	
12	0	0	0	0	536	
13	0	0	0	0	530	
14	0	0	0	0	530	
15	0	0	0	0	533	
0	0	0	0	0	535	
1	0	0	0	0	537	
2	0	0	0	0	543	
3	0	0	0	0	547	
4	0	0	0	0	545	
5	0	0	0	0	539	
6	0	0	0	0	529	
7	0	0	0	0	526	
8	0	0	0	0	526	
9	0	0	0	0	529	
10	0	0	0	0	534	
11	0	0	0	0	535	
12	0	0	0	0	530	
13	0	0	0	0	524	
14	0	0	0	0	525	
15	0	0	0	0	527	
0	0	0	0	0	532	
1	0	0	0	0	539	
2	0	0	0	0	547	
3	0	0	0	0	551	
4	0	0	0	0	548	
5	0	0	0	0	543	
6	0	0	0	0	542	
7	0	0	0	0	546	
8	0	0	0	0	550	
9	0	0	0	0	551	
10	0	0	0	0	553	
11	0	0	0	0	555	
12	0	0	0	0	556	
13	0	0	0	0	557	
14	0	0	0	0	555	
15	0	0	0	0	557	
0	0	0	0	0	561	
1	0	0	0	0	563	
2	0	0	0	0	564	
3	0	0	0	0	562	
4	0	0	0	0	565	
5	0	0	0	0	568	
6	0	0	0	0	571	
7	0	0	0	0	568	
8	0	0	0	0	570	
9	0	0	0	0	571	
10	0	0	0	0	563	
11	0	0	0	0	556	
12	0	0	0	0	556	
13	0	0	0	0	556	
14	0	0	0	0	560	
15	0	0	0	0	568	
0	0	0	0	0	572	
1	0	0	0	0	571	
2	0	0	0	0	569	
3	0	0	0	0	565	
4	0	0	0	0	561	
5	0	0	0	0	566	
6	0	0	0	0	579	
7	0	0	0	0	591	
8	0	0	0	0	593	
9	0	0	0	0	596	
10	0	0	0	0	595	
11	0	0	0	0	590	
12	0	0	0	0	580	
13	0	0	0	0	579	
14	0	0	0	0	577	
15	0	0	0	0	575	
0	0	0	0	0	570	
1	0	0	0	0	566	
2	0	0	0	0	566	
3	0	0	0	0	567	
4	0	0	0	0	572	
5	0	0	0	0	573	
6	0	0	0	0	568	
7	0	0	0	0	567	
8	0	0	0	0	564	
9	0	0	0	0	566	
10	0	0	0	0	569	
11	0	0	0	0	568	
12	0	0	0	0	560	
13	0	0	0	0	548	
14	0	0	0	0	541	
15	0	0	0	0	535	
0	0	0	0	0	529	
1	0	0	0	0	527	
2	0	0	0	0	531	
3	0	0	0	0	534	
4	0	0	0	0	533	
5	0	0	0	0	529	
6	0	0	0	0	532	
7	0	0	0	0	532	
8	0	0	0	0	529	
9	0	0	0	0	530	
10	0	0	0	0	530	
11	0	0	0	0	529	
12	0	0	0	0	529	
13	0	0	0	0	533	
14	0	0	0	0	535	
15	0	0	0	0	528	
0	0	0	0	0	517	
1	0	0	0	0	512	
2	0	0	0	0	512	
3	0	0	0	0	508	
4	0	0	0	0	503	
5	0	0	0	0	498	
6	0	0	0	0	492	
7	0	0	0	0	489	
8	0	0	0	0	487	
9	0	0	0	0	484	
10	0	0	0	0	485	
11	0	0	0	0	491	
12	0	0	0	0	494	
13	0	0	0	0	493	
14	0	0	0	0	494	
15	0	0	0	0	491	
0	0	0	0	0	489	
1	0	0	0	0	483	
2	0	0	0	0	477	
3	0	0	0	0	482	
4	0	0	0	0	483	
5	0	0	0	0	477	
6	0	0	0	0	470	
7	0	0	0	0	465	
8	0	0	0	0	467	
9	0	0	0	0	470	
10	0	0	0	0	470	
11	0	0	0	0	469	
12	0	0	0	0	472	
13	0	0	0	0	478	
14	0	0	0	0	480	
15	0	0	0	0	478	
0	0	0	0	0	471	
1	0	0	0	0	468	
2	0	0	0	0	463	
3	0	0	0	0	457	
4	0	0	0	0	454	
5	0	0	0	0	451	
6	0	0	0	0	452	
7	0	0	0	0	454	
8	0	0	0	0	460	
9	0	0	0	0	466	
10	0	0	0	0	468	
11	0	0	0	0	465	
12	0	0	0	0	464	
13	0	0	0	0	463	
14	0	0	0	0	461	
15	0	0	0	0	460	
0	0	0	0	0	461	
1	0	0	0	0	461	
2	0	0	0	0	461	
3	0	0	0	0	459	
4	0	0	0	0	462	
5	0	0	0	0	461	
6	0	0	0	0	462	
7	0	0	0	0	461	
8	0	0	0	0	462	
9	0	0	0	0	464	
10	0	0	0	0	464	
11	0	0	0	0	465	
12	0	0	0	0	466	
13	0	0	0	0	470	
14	0	0	0	0	469	
15	0	0	0	0	460	
0	0	0	0	0	459	
1	0	0	0	0	461	
2	0	0	0	0	460	
3	0	0	0	0	457	
4	0	0	0	0	461	
5	0	0	0	0	464	
6	0	0	0	0	465	
7	0	0	0	0	468	
8	0	0	0	0	471	
9	0	0	0	0	472	
10	0	0	0	0	474	
11	0	0	0	0	475	
12	0	0	0	0	477	
13	0	0	0	0	474	
14	0	0	0	0	468	
15	0	0	0	0	471	
0	0	0	0	0	476	
1	0	0	0	0	479	
2	0	0	0	0	481	
3	0	0	0	0	480	
4	0	0	0	0	482	
5	0	0	0	0	481	
6	0	0	0	0	477	
7	0	0	0	0	473	
8	0	0	0	0	468	
9	0	0	0	0	465	
10	0	0	0	0	465	
11	0	0	0	0	468	
12	0	0	0	0	466	
13	0	0	0	0	464	
14	0	0	0	0	473	
15	0	0	0	0	479	
0	0	0	0	0	476	
1	0	0	0	0	475	
2	0	0	0	0	473	
3	0	0	0	0	475	
4	0	0	0	0	483	
5	0	0	0	0	489	
6	0	0	0	0	490	
7	0	0	0	0	491	
8	0	0	0	0	491	
9	0	0	0	0	491	
10	0	0	0	0	487	
11	0	0	0	0	480	
12	0	0	0	0	478	
13	0	0	0	0	477	
14	0	0	0	0	478	
15	0	0	0	0	479	
0	0	0	0	0	476	
1	0	0	0	0	478	
2	0	0	0	0	479	
3	0	0	0	0	478	
4	0	0	0	0	479	
5	0	0	0	0	481	
6	0	0	0	0	480	
7	0	0	0	0	475	
8	0	0	0	0	471	
9	0	0	0	0	472	
10	0	0	0	0	473	
11	0	0	0	0	479	
12	0	0	0	0	487	
13	0	0	0	0	492	
14	0	0	0	0	493	
15	0	0	0	0	498	
0	0	0	0	0	499	
1	0	0	0	0	501	
2	0	0	0	0	498	
3	0	0	0	0	492	
4	0	0	0	0	489	
5	0	0	0	0	494	
6	0	0	0	0	497	
7	0	0	0	0	496	
8	0	0	0	0	492	
9	0	0	0	0	492	
10	0	0	0	0	494	
11	0	0	0	0	496	
12	0	0	0	0	499	
13	0	0	0	0	502	
14	0	0	0	0	502	
15	0	0	0	0	499	
0	0	0	0	0	497	
1	0	0	0	0	492	
2	0	0	0	0	484	
3	0	0	0	0	489	
4	0	0	0	0	493	
5	0	0	0	0	487	
6	0	0	0	0	479	
7	0	0	0	0	478	
8	0	0	0	0	477	
9	0	0	0	0	478	
10	0	0	0	0	475	
11	0	0	0	0	474	
12	0	0	0	0	473	
13	0	0	0	0	473	
14	0	0	0	0	480	
15	0	0	0	0	486	
0	0	0	0	0	488	
1	0	0	0	0	490	
2	0	0	0	0	491	
3	0	0	0	0	495	
4	0	0	0	0	499	
5	0	0	0	0	502	
6	0	0	0	0	505	
7	0	0	0	0	507	
8	0	0	0	0	505	
9	0	0	0	0	506	
10	0	0	0	0	506	
11	0	0	0	0	503	
12	0	0	0	0	498	
13	0	0	0	0	491	
14	0	0	0	0	488	
15	0	0	0	0	482	
0	0	0	0	0	480	
1	0	0	0	0	479	
2	0	0	0	0	481	
3	0	0	0	0	478	
4	0	0	0	0	480	
5	0	0	0	0	489	
6	0	0	0	0	499	
7	0	0	0	0	504	
8	0	0	0	0	507	
9	0	0	0	0	512	
10	0	0	0	0	516	
11	0	0	0	0	518	
12	0	0	0	0	516	
13	0	0	0	0	510	
14	0	0	0	0	504	
15	0	0	0	0	501	
0	0	0	0	0	499	
1	0	0	0	0	495	
2	0	0	0	0	495	
3	0	0	0	0	495	
4	0	0	0	0	494	
5	0	0	0	0	497	
6	0	0	0	0	501	
7	0	0	0	0	502	
8	0	0	0	0	501	
9	0	0	0	0	501	
10	0	0	0	0	499	
11	0	0	0	0	500	
12	0	0	0	0	503	
13	0	0	0	0	503	
14	0	0	0	0	506	
15	0	0	0	0	510	
0	0	0	0	0	510	
1	0	0	0	0	511	
2	0	0	0	0	517	
3	0	0	0	0	524	
4	0	0	0	0	523	
5	0	0	0	0	521	
6	0	0	0	0	514	
7	0	0	0	0	508	
8	0	0	0	0	504	
9	0	0	0	0	498	
10	0	0	0	0	494	
11	0	0	0	0	497	
12	0	0	0	0	502	
13	0	0	0	0	510	
14	0	0	0	0	515	
15	0	0	0	0	520	
0	0	0	0	0	524	
1	0	0	0	0	522	
2	0	0	0	0	519	
3	0	0	0	0	524	
4	0	0	0	0	523	
5	0	0	0	0	517	
6	0	0	0	0	512	
7	0	0	0	0	510	
8	0	0	0	0	506	
9	0	0	0	0	505	
10	0	0	0	0	507	
11	0	0	0	0	508	
12	0	0	0	0	514	
13	0	0	0	0	522	
14	0	0	0	0	522	
15	0	0	0	0	515	
0	0	0	0	0	502	
1	0	0	0	0	498	
2	0	0	0	0	499	
3	0	0	0	0	499	
4	0	0	0	0	501	
5	0	0	0	0	504	
6	0	0	0	0	509	
7	0	0	0	0	510	
8	0	0	0	0	508	
9	0	0	0	0	510	
10	0	0	0	0	502	
11	0	0	0	0	492	
12	0	0	0	0	488	
13	0	0	0	0	483	
14	0	0	0	0	482	
15	0	0	0	0	482	
0	0	0	0	0	487	
1	0	0	0	0	490	
2	0	0	0	0	491	
3	0	0	0	0	490	
4	0	0	0	0	491	
5	0	0	0	0	493	
6	0	0	0	0	492	
7	0	0	0	0	491	
8	0	0	0	0	492	
9	0	0	0	0	492	
10	0	0	0	0	492	
11	0	0	0	0	488	
12	0	0	0	0	484	
13	0	0	0	0	486	
14	0	0	0	0	487	
15	0	0	0	0	484	
0	0	0	0	0	479	
1	0	0	0	0	480	
2	0	0	0	0	483	
3	0	0	0	0	483	
4	0	0	0	0	484	
5	0	0	0	0	487	
6	0	0	0	0	492	
7	0	0	0	0	498	
8	0	0	0	0	499	
9	0	0	0	0	498	
10	0	0	0	0	496	
11	0	0	0	0	495	
12	0	0	0	0	493	
13	0	0	0	0	488	
14	0	0	0	0	482	
15	0	0	0	0	479	
0	0	0	0	0	477	
1	0	0	0	0	477	
2	0	0	0	0	479	
3	0	0	0	0	481	
4	0	0	0	0	486	
5	0	0	0	0	488	
6	0	0	0	0	492	
7	0	0	0	0	495	
8	0	0	0	0	496	
9	0	0	0	0	496	
10	0	0	0	0	497	
11	0	0	0	0	497	
12	0	0	0	0	498	
13	0	0	0	0	496	
14	0	0	0	0	497	
15	0	0	0	0	497	
0	0	0	0	0	497	
1	0	0	0	0	494	
2	0	0	0	0	487	
3	0	0	0	0	484	
4	0	0	0	0	487	
5	0	0	0	0	494	
6	0	0	0	0	496	
7	0	0	0	0	500	
8	0	0	0	0	507	
9	0	0	0	0	511	
10	0	0	0	0	512	
11	0	0	0	0	508	
12	0	0	0	0	504	
13	0	0	0	0	504	
14	0	0	0	0	504	
15	0	0	0	0	504	
0	0	0	0	0	496	
1	0	0	0	0	486	
2	0	0	0	0	483	
3	0	0	0	0	487	
4	0	0	0	0	492	
5	0	0	0	0	486	
6	0	0	0	0	484	
7	0	0	0	0	484	
8	0	0	0	0	483	
9	0	0	0	0	484	
10	0	0	0	0	490	
11	0	0	0	0	504	
12	0	0	0	0	523	
13	0	0	0	0	544	
14	0	0	0	0	564	
15	0	0	0	0	576	
0	0	0	0	0	577	
1	0	0	0	0	585	
2	0	0	0	0	599	
3	0	0	0	0	618	
4	0	0	0	0	641	
5	0	0	0	0	658	
6	0	0	0	0	670	
7	0	0	0	0	687	
8	0	0	0	0	705	
9	0	0	0	0	723	
10	0	0	0	0	734	
11	0	0	0	0	744	
12	0	0	0	0	758	
13	0	0	0	0	765	
14	0	0	0	0	768	
15	0	0	0	0	776	
0	0	0	0	0	775	
1	0	0	0	0	771	
2	0	0	0	0	772	
3	0	0	0	0	768	
4	0	0	0	0	753	
5	0	0	0	0	732	
6	0	0	0	0	707	
7	0	0	0	0	676	
8	0	0	0	0	644	
9	0	0	0	0	604	
10	0	0	0	0	560	
11	0	0	0	0	516	
12	0	0	0	0	483	
13	0	0	0	0	449	
14	0	0	0	0	416	
15	0	0	0	0	387	
0	0	0	0	0	359	
1	0	0	0	0	340	
2	0	0	0	0	322	
3	0	0	0	0	308	
4	0	0	0	0	299	
5	0	0	0	0	295	
6	0	0	0	0	292	
7	0	0	0	0	286	
8	0	0	0	0	283	
9	0	0	0	0	291	
10	0	0	0	0	294	
11	0	0	0	0	299	
12	0	0	0	0	309	
13	0	0	0	0	310	
14	0	0	0	0	316	
15	0	0	0	0	327	
0	0	0	0	0	337	
1	0	0	0	0	349	
2	0	0	0	0	361	
3	0	0	0	0	364	
4	0	0	0	0	369	
5	0	0	0	0	376	
6	0	0	0	0	382	
7	0	0	0	0	388	
8	0	0	0	0	395	
9	0	0	0	0	401	
10	0	0	0	0	413	
11	0	0	0	0	424	
12	0	0	0	0	432	
13	0	0	0	0	441	
14	0	0	0	0	452	
15	0	0	0	0	462	
0	0	0	0	0	469	
1	0	0	0	0	472	
2	0	0	0	0	478	
3	0	0	0	0	480	
4	0	0	0	0	483	
5	0	0	0	0	487	
6	0	0	0	0	489	
7	0	0	0	0	488	
8	0	0	0	0	489	
9	0	0	0	0	490	
10	0	0	0	0	490	
11	0	0	0	0	491	
12	0	0	0	0	493	
13	0	0	0	0	495	
14	0	0	0	0	496	
15	0	0	0	0	500	
0	0	0	0	0	504	
1	0	0	0	0	500	
2	0	0	0	0	496	
3	0	0	0	0	496	
4	0	0	0	0	499	
5	0	0	0	0	503	
6	0	0	0	0	499	
7	0	0	0	0	496	
8	0	0	0	0	490	
9	0	0	0	0	486	
10	0	0	0	0	492	
11	0	0	0	0	504	
12	0	0	0	0	512	
13	0	0	0	0	519	
14	0	0	0	0	522	
15	0	0	0	0	524	
0	0	0	0	0	516	
1	0	0	0	0	512	
2	0	0	0	0	510	
3	0	0	0	0	511	
4	0	0	0	0	515	
5	0	0	0	0	511	
6	0	0	0	0	509	
7	0	0	0	0	512	
8	0	0	0	0	516	
9	0	0	0	0	519	
10	0	0	0	0	521	
11	0	0	0	0	518	
12	0	0	0	0	515	
13	0	0	0	0	515	
14	0	0	0	0	515	
15	0	0	0	0	513	
0	0	0	0	0	515	
1	0	0	0	0	515	
2	0	0	0	0	515	
3	0	0	0	0	514	
4	0	0	0	0	515	
5	0	0	0	0	513	
6	0	0	0	0	508	
7	0	0	0	0	501	
8	0	0	0	0	497	
9	0	0	0	0	501	
10	0	0	0	0	507	
11	0	0	0	0	510	
12	0	0	0	0	513	
13	0	0	0	0	516	
14	0	0	0	0	516	
15	0	0	0	0	523	
0	0	0	0	0	530	
1	0	0	0	0	535	
2	0	0	0	0	534	
3	0	0	0	0	528	
4	0	0	0	0	526	
5	0	0	0	0	524	
6	0	0	0	0	520	
7	0	0	0	0	520	
8	0	0	0	0	517	
9	0	0	0	0	513	
10	0	0	0	0	513	
11	0	0	0	0	514	
12	0	0	0	0	519	
13	0	0	0	0	526	
14	0	0	0	0	533	
15	0	0	0	0	531	
0	0	0	0	0	523	
1	0	0	0	0	516	
2	0	0	0	0	515	
3	0	0	0	0	517	
4	0	0	0	0	520	
5	0	0	0	0	521	
6	0	0	0	0	519	
7	0	0	0	0	515	
8	0	0	0	0	511	
9	0	0	0	0	506	
10	0	0	0	0	502	
11	0	0	0	0	505	
12	0	0	0	0	513	
13	0	0	0	0	514	
14	0	0	0	0	511	
15	0	0	0	0	507	
0	0	0	0	0	508	
1	0	0	0	0	510	
2	0	0	0	0	510	
3	0	0	0	0	514	
4	0	0	0	0	516	
5	0	0	0	0	515	
6	0	0	0	0	518	
7	0	0	0	0	517	
8	0	0	0	0	516	
9	0	0	0	0	522	
10	0	0	0	0	527	
11	0	0	0	0	529	
12	0	0	0	0	528	
13	0	0	0	0	534	
14	0	0	0	0	539	
15	0	0	0	0	540	
0	0	0	0	0	537	
1	0	0	0	0	527	
2	0	0	0	0	523	
3	0	0	0	0	517	
4	0	0	0	0	517	
5	0	0	0	0	524	
6	0	0	0	0	530	
7	0	0	0	0	534	
8	0	0	0	0	535	
9	0	0	0	0	539	
10	0	0	0	0	543	
11	0	0	0	0	547	
12	0	0	0	0	543	
13	0	0	0	0	539	
14	0	0	0	0	539	
15	0	0	0	0	536	
0	0	0	0	0	532	
1	0	0	0	0	526	
2	0	0	0	0	527	
3	0	0	0	0	531	
4	0	0	0	0	538	
5	0	0	0	0	538	
6	0	0	0	0	534	
7	0	0	0	0	529	
8	0	0	0	0	527	
9	0	0	0	0	526	
10	0	0	0	0	529	
11	0	0	0	0	537	
12	0	0	0	0	547	
13	0	0	0	0	556	
14	0	0	0	0	557	
15	0	0	0	0	559	
0	0	0	0	0	562	
1	0	0	0	0	563	
2	0	0	0	0	564	
3	0	0	0	0	562	
4	0	0	0	0	558	
5	0	0	0	0	556	
6	0	0	0	0	556	
7	0	0	0	0	559	
8	0	0	0	0	559	
9	0	0	0	0	558	
10	0	0	0	0	558	
11	0	0	0	0	556	
12	0	0	0	0	556	
13	0	0	0	0	559	
14	0	0	0	0	564	
15	0	0	0	0	571	
0	0	0	0	0	577	
1	0	0	0	0	574	
2	0	0	0	0	569	
3	0	0	0	0	570	
4	0	0	0	0	569	
5	0	0	0	0	570	
6	0	0	0	0	569	
7	0	0	0	0	568	
8	0	0	0	0	565	
9	0	0	0	0	566	
10	0	0	0	0	560	
11	0	0	0	0	551	
12	0	0	0	0	548	
13	0	0	0	0	547	
14	0	0	0	0	545	
15	0	0	0	0	547	
0	0	0	0	0	553	
1	0	0	0	0	558	
2	0	0	0	0	559	
3	0	0	0	0	555	
4	0	0	0	0	548	
5	0	0	0	0	544	
6	0	0	0	0	539	
7	0	0	0	0	537	
8	0	0	0	0	539	
9	0	0	0	0	534	
10	0	0	0	0	529	
11	0	0	0	0	532	
12	0	0	0	0	534	
13	0	0	0	0	535	
14	0	0	0	0	535	
15	0	0	0	0	537	
0	0	0	0	0	536	
1	0	0	0	0	533	
2	0	0	0	0	531	
3	0	0	0	0	526	
4	0	0	0	0	520	
5	0	0	0	0	512	
6	0	0	0	0	508	
7	0	0	0	0	508	
8	0	0	0	0	507	
9	0	0	0	0	506	
10	0	0	0	0	507	
11	0	0	0	0	507	
12	0	0	0	0	509	
13	0	0	0	0	508	
14	0	0	0	0	500	
15	0	0	0	0	498	
0	0	0	0	0	499	
1	0	0	0	0	500	
2	0	0	0	0	498	
3	0	0	0	0	489	
4	0	0	0	0	480	
5	0	0	0	0	482	
6	0	0	0	0	483	
7	0	0	0	0	480	
8	0	0	0	0	482	
9	0	0	0	0	483	
10	0	0	0	0	481	
11	0	0	0	0	479	
12	0	0	0	0	478	
13	0	0	0	0	470	
14	0	0	0	0	462	
15	0	0	0	0	463	
0	0	0	0	0	471	
1	0	0	0	0	476	
2	0	0	0	0	476	
3	0	0	0	0	482	
4	0	0	0	0	488	
5	0	0	0	0	493	
6	0	0	0	0	492	
7	0	0	0	0	491	
8	0	0	0	0	487	
9	0	0	0	0	481	
10	0	0	0	0	472	
11	0	0	0	0	473	
12	0	0	0	0	472	
13	0	0	0	0	468	
14	0	0	0	0	466	
15	0	0	0	0	467	
0	0	0	0	0	471	
1	0	0	0	0	473	
2	0	0	0	0	475	
3	0	0	0	0	475	
4	0	0	0	0	477	
5	0	0	0	0	476	
6	0	0	0	0	471	
7	0	0	0	0	471	
8	0	0	0	0	473	
9	0	0	0	0	475	
10	0	0	0	0	478	
11	0	0	0	0	476	
12	0	0	0	0	476	
13	0	0	0	0	473	
14	0	0	0	0	476	
15	0	0	0	0	476	
0	0	0	0	0	477	
1	0	0	0	0	476	
2	0	0	0	0	472	
3	0	0	0	0	468	
4	0	0	0	0	464	
5	0	0	0	0	462	
6	0	0	0	0	462	
7	0	0	0	0	464	
8	0	0	0	0	469	
9	0	0	0	0	475	
10	0	0	0	0	476	
11	0	0	0	0	479	
12	0	0	0	0	483	
13	0	0	0	0	488	
14	0	0	0	0	486	
15	0	0	0	0	480	
0	0	0	0	0	475	
1	0	0	0	0	475	
2	0	0	0	0	481	
3	0	0	0	0	487	
4	0	0	0	0	486	
5	0	0	0	0	480	
6	0	0	0	0	479	
7	0	0	0	0	486	
8	0	0	0	0	490	
9	0	0	0	0	497	
10	0	0	0	0	500	
11	0	0	0	0	500	
12	0	0	0	0	499	
13	0	0	0	0	494	
14	0	0	0	0	488	
15	0	0	0	0	488	
0	0	0	0	0	487	
1	0	0	0	0	487	
2	0	0	0	0	487	
3	0	0	0	0	491	
4	0	0	0	0	491	
5	0	0	0	0	492	
6	0	0	0	0	496	
7	0	0	0	0	498	
8	0	0	0	0	497	
9	0	0	0	0	498	
10	0	0	0	0	500	
11	0	0	0	0	499	
12	0	0	0	0	503	
13	0	0	0	0	506	
14	0	0	0	0	507	
15	0	0	0	0	502	
0	0	0	0	0	498	
1	0	0	0	0	495	
2	0	0	0	0	500	
3	0	0	0	0	499	
4	0	0	0	0	499	
5	0	0	0	0	492	
6	0	0	0	0	482	
7	0	0	0	0	475	
8	0	0	0	0	476	
9	0	0	0	0	481	
10	0	0	0	0	479	
11	0	0	0	0	479	
12	0	0	0	0	484	
13	0	0	0	0	487	
14	0	0	0	0	489	
15	0	0	0	0	492	
0	0	0	0	0	494	
1	0	0	0	0	494	
2	0	0	0	0	495	
3	0	0	0	0	499	
4	0	0	0	0	501	
5	0	0	0	0	501	
6	0	0	0	0	504	
7	0	0	0	0	505	
8	0	0	0	0	503	
9	0	0	0	0	502	
10	0	0	0	0	502	
11	0	0	0	0	499	
12	0	0	0	0	495	
13	0	0	0	0	489	
14	0	0	0	0	482	
15	0	0	0	0	481	
0	0	0	0	0	485	
1	0	0	0	0	491	
2	0	0	0	0	504	
3	0	0	0	0	514	
4	0	0	0	0	516	
5	0	0	0	0	515	
6	0	0	0	0	511	
7	0	0	0	0	508	
8	0	0	0	0	510	
9	0	0	0	0	509	
10	0	0	0	0	507	
11	0	0	0	0	501	
12	0	0	0	0	497	
13	0	0	0	0	493	
14	0	0	0	0	496	
15	0	0	0	0	502	
0	0	0	0	0	502	
1	0	0	0	0	503	
2	0	0	0	0	507	
3	0	0	0	0	510	
4	0	0	0	0	509	
5	0	0	0	0	509	
6	0	0	0	0	511	
7	0	0	0	0	512	
8	0	0	0	0	508	
9	0	0	0	0	508	
10	0	0	0	0	501	
11	0	0	0	0	496	
12	0	0	0	0	496	
13	0	0	0	0	504	
14	0	0	0	0	509	
15	0	0	0	0	508	
0	0	0	0	0	506	
1	0	0	0	0	504	
2	0	0	0	0	503	
3	0	0	0	0	504	
4	0	0	0	0	509	
5	0	0	0	0	512	
6	0	0	0	0	510	
7	0	0	0	0	504	
8	0	0	0	0	497	
9	0	0	0	0	498	
10	0	0	0	0	497	
11	0	0	0	0	494	
12	0	0	0	0	489	
13	0	0	0	0	488	
14	0	0	0	0	490	
15	0	0	0	0	493	
0	0	0	0	0	497	
1	0	0	0	0	496	
2	0	0	0	0	490	
3	0	0	0	0	492	
4	0	0	0	0	497	
5	0	0	0	0	503	
6	0	0	0	0	505	
7	0	0	0	0	510	
8	0	0	0	0	511	
9	0	0	0	0	511	
10	0	0	0	0	514	
11	0	0	0	0	513	
12	0	0	0	0	512	
13	0	0	0	0	510	
14	0	0	0	0	509	
15	0	0	0	0	506	
0	0	0	0	0	506	
1	0	0	0	0	503	
2	0	0	0	0	497	
3	0	0	0	0	496	
4	0	0	0	0	494	
5	0	0	0	0	493	
6	0	0	0	0	497	
7	0	0	0	0	505	
8	0	0	0	0	512	
9	0	0	0	0	522	
10	0	0	0	0	529	
11	0	0	0	0	524	
12	0	0	0	0	519	
13	0	0	0	0	514	
14	0	0	0	0	513	
15	0	0	0	0	510	
0	0	0	0	0	508	
1	0	0	0	0	513	
2	0	0	0	0	516	
3	0	0	0	0	519	
4	0	0	0	0	520	
5	0	0	0	0	527	
6	0	0	0	0	531	
7	0	0	0	0	532	
8	0	0	0	0	533	
9	0	0	0	0	534	
10	0	0	0	0	534	
11	0	0	0	0	535	
12	0	0	0	0	534	
13	0	0	0	0	535	
14	0	0	0	0	534	
15	0	0	0	0	529	
0	0	0	0	0	527	
1	0	0	0	0	529	
2	0	0	0	0	532	
3	0	0	0	0	532	
4	0	0	0	0	529	
5	0	0	0	0	524	
6	0	0	0	0	523	
7	0	0	0	0	524	
8	0	0	0	0	521	
9	0	0	0	0	515	
10	0	0	0	0	513	
11	0	0	0	0	514	
12	0	0	0	0	513	
13	0	0	0	0	512	
14	0	0	0	0	512	
15	0	0	0	0	514	
0	0	0	0	0	513	
1	0	0	0	0	511	
2	0	0	0	0	505	
3	0	0	0	0	499	
4	0	0	0	0	499	
5	0	0	0	0	501	
6	0	0	0	0	503	
7	0	0	0	0	504	
8	0	0	0	0	507	
9	0	0	0	0	507	
10	0	0	0	0	499	
11	0	0	0	0	493	
12	0	0	0	0	490	
13	0	0	0	0	491	
14	0	0	0	0	495	
15	0	0	0	0	494	
0	0	0	0	0	493	
1	0	0	0	0	494	
2	0	0	0	0	491	
3	0	0	0	0	486	
4	0	0	0	0	486	
5	0	0	0	0	483	
6	0	0	0	0	481	
7	0	0	0	0	480	
8	0	0	0	0	479	
9	0	0	0	0	483	
10	0	0	0	0	493	
11	0	0	0	0	499	
12	0	0	0	0	498	
13	0	0	0	0	497	
14	0	0	0	0	496	
15	0	0	0	0	491	
0	0	0	0	0	486	
1	0	0	0	0	483	
2	0	0	0	0	479	
3	0	0	0	0	479	
4	0	0	0	0	487	
5	0	0	0	0	495	
6	0	0	0	0	503	
7	0	0	0	0	505	
8	0	0	0	0	504	
9	0	0	0	0	499	
10	0	0	0	0	494	
11	0	0	0	0	488	
12	0	0	0	0	480	
13	0	0	0	0	477	
14	0	0	0	0	474	
15	0	0	0	0	471	
0	0	0	0	0	471	
1	0	0	0	0	479	
2	0	0	0	0	489	
3	0	0	0	0	495	
4	0	0	0	0	496	
5	0	0	0	0	492	
6	0	0	0	0	486	
7	0	0	0	0	484	
8	0	0	0	0	480	
9	0	0	0	0	481	
10	0	0	0	0	483	
11	0	0	0	0	492	
12	0	0	0	0	501	
13	0	0	0	0	510	
14	0	0	0	0	516	
15	0	0	0	0	515	
0	0	0	0	0	511	
1	0	0	0	0	506	
2	0	0	0	0	496	
3	0	0	0	0	491	
4	0	0	0	0	488	
5	0	0	0	0	487	
6	0	0	0	0	486	
7	0	0	0	0	486	
8	0	0	0	0	489	
9	0	0	0	0	497	
10	0	0	0	0	504	
11	0	0	0	0	508	
12	0	0	0	0	509	
13	0	0	0	0	508	
14	0	0	0	0	505	
15	0	0	0	0	504	
0	0	0	0	0	502	
1	0	0	0	0	502	
2	0	0	0	0	503	
3	0	0	0	0	504	
4	0	0	0	0	508	
5	0	0	0	0	508	
6	0	0	0	0	512	
7	0	0	0	0	520	
8	0	0	0	0	536	
9	0	0	0	0	552	
10	0	0	0	0	567	
11	0	0	0	0	585	
12	0	0	0	0	598	
13	0	0	0	0	613	
14	0	0	0	0	635	
15	0	0	0	0	655	
0	0	0	0	0	669	
1	0	0	0	0	684	
2	0	0	0	0	700	
3	0	0	0	0	713	
4	0	0	0	0	726	
5	0	0	0	0	742	
6	0	0	0	0	762	
7	0	0	0	0	785	
8	0	0	0	0	797	
9	0	0	0	0	804	
10	0	0	0	0	805	
11	0	0	0	0	803	
12	0	0	0	0	800	
13	0	0	0	0	794	
14	0	0	0	0	782	
15	0	0	0	0	764	
0	0	0	0	0	741	
1	0	0	0	0	714	
2	0	0	0	0	686	
3	0	0	0	0	653	
4	0	0	0	0	608	
5	0	0	0	0	558	
6	0	0	0	0	501	
7	0	0	0	0	444	
8	0	0	0	0	398	
9	0	0	0	0	359	
10	0	0	0	0	329	
11	0	0	0	0	305	
12	0	0	0	0	286	
13	0	0	0	0	273	
14	0	0	0	0	271	
15	0	0	0	0	271	
0	0	0	0	0	268	
1	0	0	0	0	269	
2	0	0	0	0	268	
3	0	0	0	0	266	
4	0	0	0	0	268	
5	0	0	0	0	276	
6	0	0	0	0	280	
7	0	0	0	0	281	
8	0	0	0	0	287	
9	0	0	0	0	294	
10	0	0	0	0	303	
11	0	0	0	0	310	
12	0	0	0	0	320	
13	0	0	0	0	330	
14	0	0	0	0	343	
15	0	0	0	0	359	
0	0	0	0	0	369	
1	0	0	0	0	375	
2	0	0	0	0	390	
3	0	0	0	0	410	
4	0	0	0	0	423	
5	0	0	0	0	429	
6	0	0	0	0	437	
7	0	0	0	0	446	
8	0	0	0	0	454	
9	0	0	0	0	463	
10	0	0	0	0	476	
11	0	0	0	0	484	
12	0	0	0	0	489	
13	0	0	0	0	491	
14	0	0	0	0	488	
15	0	0	0	0	488	
0	0	0	0	0	491	
1	0	0	0	0	495	
2	0	0	0	0	495	
3	0	0	0	0	499	
4	0	0	0	0	503	
5	0	0	0	0	506	
6	0	0	0	0	507	
7	0	0	0	0	506	
8	0	0	0	0	511	
9	0	0	0	0	515	
10	0	0	0	0	513	
11	0	0	0	0	510	
12	0	0	0	0	510	
13	0	0	0	0	507	
14	0	0	0	0	503	
15	0	0	0	0	504	
0	0	0	0	0	506	
1	0	0	0	0	508	
2	0	0	0	0	510	
3	0	0	0	0	513	
4	0	0	0	0	514	
5	0	0	0	0	513	
6	0	0	0	0	512	
7	0	0	0	0	510	
8	0	0	0	0	508	
9	0	0	0	0	508	
10	0	0	0	0	508	
11	0	0	0	0	504	
12	0	0	0	0	506	
13	0	0	0	0	514	
14	0	0	0	0	518	
15	0	0	0	0	522	
0	0	0	0	0	531	
1	0	0	0	0	534	
2	0	0	0	0	529	
3	0	0	0	0	519	
4	0	0	0	0	515	
5	0	0	0	0	515	
6	0	0	0	0	513	
7	0	0	0	0	514	
8	0	0	0	0	515	
9	0	0	0	0	518	
10	0	0	0	0	519	
11	0	0	0	0	520	
12	0	0	0	0	518	
13	0	0	0	0	516	
14	0	0	0	0	514	
15	0	0	0	0	515	
0	0	0	0	0	515	
1	0	0	0	0	514	
2	0	0	0	0	512	
3	0	0	0	0	508	
4	0	0	0	0	504	
5	0	0	0	0	506	
6	0	0	0	0	512	
7	0	0	0	0	519	
8	0	0	0	0	521	
9	0	0	0	0	521	
10	0	0	0	0	518	
11	0	0	0	0	517	
12	0	0	0	0	519	
13	0	0	0	0	520	
14	0	0	0	0	518	
15	0	0	0	0	515	
0	0	0	0	0	516	
1	0	0	0	0	520	
2	0	0	0	0	522	
3	0	0	0	0	523	
4	0	0	0	0	528	
5	0	0	0	0	531	
6	0	0	0	0	535	
7	0	0	0	0	540	
8	0	0	0	0	542	
9	0	0	0	0	542	
10	0	0	0	0	541	
11	0	0	0	0	542	
12	0	0	0	0	539	
13	0	0	0	0	536	
14	0	0	0	0	533	
15	0	0	0	0	530	
0	0	0	0	0	534	
1	0	0	0	0	533	
2	0	0	0	0	528	
3	0	0	0	0	524	
4	0	0	0	0	529	
5	0	0	0	0	532	
6	0	0	0	0	534	
7	0	0	0	0	536	
8	0	0	0	0	535	
9	0	0	0	0	532	
10	0	0	0	0	531	
11	0	0	0	0	533	
12	0	0	0	0	529	
13	0	0	0	0	518	
14	0	0	0	0	508	
15	0	0	0	0	500	
0	0	0	0	0	500	
1	0	0	0	0	508	
2	0	0	0	0	519	
3	0	0	0	0	531	
4	0	0	0	0	534	
5	0	0	0	0	532	
6	0	0	0	0	535	
7	0	0	0	0	540	
8	0	0	0	0	545	
9	0	0	0	0	547	
10	0	0	0	0	551	
11	0	0	0	0	555	
12	0	0	0	0	556	
13	0	0	0	0	555	
14	0	0	0	0	553	
15	0	0	0	0	551	
0	0	0	0	0	543	
1	0	0	0	0	537	
2	0	0	0	0	542	
3	0	0	0	0	555	
4	0	0	0	0	561	
5	0	0	0	0	559	
6	0	0	0	0	557	
7	0	0	0	0	552	
8	0	0	0	0	550	
9	0	0	0	0	551	
10	0	0	0	0	551	
11	0	0	0	0	551	
12	0	0	0	0	556	
13	0	0	0	0	563	
14	0	0	0	0	572	
15	0	0	0	0	576	
0	0	0	0	0	577	
1	0	0	0	0	576	
2	0	0	0	0	574	
3	0	0	0	0	575	
4	0	0	0	0	572	
5	0	0	0	0	571	
6	0	0	0	0	568	
7	0	0	0	0	565	
8	0	0	0	0	563	
9	0	0	0	0	564	
10	0	0	0	0	571	
11	0	0	0	0	568	
12	0	0	0	0	562	
13	0	0	0	0	551	
14	0	0	0	0	541	
15	0	0	0	0	544	
0	0	0	0	0	554	
1	0	0	0	0	563	
2	0	0	0	0	571	
3	0	0	0	0	581	
4	0	0	0	0	588	
5	0	0	0	0	591	
6	0	0	0	0	588	
7	0	0	0	0	585	
8	0	0	0	0	580	
9	0	0	0	0	575	
10	0	0	0	0	571	
11	0	0	0	0	569	
12	0	0	0	0	570	
13	0	0	0	0	569	
14	0	0	0	0	563	
15	0	0	0	0	561	
0	0	0	0	0	565	
1	0	0	0	0	569	
2	0	0	0	0	578	
3	0	0	0	0	587	
4	0	0	0	0	588	
5	0	0	0	0	583	
6	0	0	0	0	582	
7	0	0	0	0	583	
8	0	0	0	0	582	
9	0	0	0	0	579	
10	0	0	0	0	575	
11	0	0	0	0	569	
12	0	0	0	0	561	
13	0	0	0	0	555	
14	0	0	0	0	554	
15	0	0	0	0	555	
0	0	0	0	0	553	
1	0	0	0	0	552	
2	0	0	0	0	547	
3	0	0	0	0	543	
4	0	0	0	0	542	
5	0	0	0	0	537	
6	0	0	0	0	530	
7	0	0	0	0	527	
8	0	0	0	0	524	
9	0	0	0	0	521	
10	0	0	0	0	516	
11	0	0	0	0	511	
12	0	0	0	0	508	
13	0	0	0	0	511	
14	0	0	0	0	515	
15	0	0	0	0	518	
0	0	0	0	0	519	
1	0	0	0	0	523	
2	0	0	0	0	524	
3	0	0	0	0	523	
4	0	0	0	0	522	
5	0	0	0	0	524	
6	0	0	0	0	531	
7	0	0	0	0	532	
8	0	0	0	0	524	
9	0	0	0	0	519	
10	0	0	0	0	512	
11	0	0	0	0	497	
12	0	0	0	0	487	
13	0	0	0	0	487	
14	0	0	0	0	487	
15	0	0	0	0	485	
0	0	0	0	0	483	
1	0	0	0	0	477	
2	0	0	0	0	471	
3	0	0	0	0	470	
4	0	0	0	0	465	
5	0	0	0	0	459	
6	0	0	0	0	460	
7	0	0	0	0	467	
8	0	0	0	0	476	
9	0	0	0	0	479	
10	0	0	0	0	478	
11	0	0	0	0	471	
12	0	0	0	0	464	
13	0	0	0	0	460	
14	0	0	0	0	459	
15	0	0	0	0	461	
0	0	0	0	0	467	
1	0	0	0	0	472	
2	0	0	0	0	471	
3	0	0	0	0	475	
4	0	0	0	0	479	
5	0	0	0	0	479	
6	0	0	0	0	477	
7	0	0	0	0	472	
8	0	0	0	0	466	
9	0	0	0	0	469	
10	0	0	0	0	474	
11	0	0	0	0	476	
12	0	0	0	0	472	
13	0	0	0	0	470	
14	0	0	0	0	470	
15	0	0	0	0	470	
0	0	0	0	0	464	
1	0	0	0	0	459	
2	0	0	0	0	462	
3	0	0	0	0	469	
4	0	0	0	0	472	
5	0	0	0	0	473	
6	0	0	0	0	475	
7	0	0	0	0	472	
8	0	0	0	0	472	
9	0	0	0	0	478	
10	0	0	0	0	481	
11	0	0	0	0	476	
12	0	0	0	0	473	
13	0	0	0	0	471	
14	0	0	0	0	468	
15	0	0	0	0	465	
0	0	0	0	0	465	
1	0	0	0	0	461	
2	0	0	0	0	460	
3	0	0	0	0	464	
4	0	0	0	0	467	
5	0	0	0	0	472	
6	0	0	0	0	475	
7	0	0	0	0	479	
8	0	0	0	0	477	
9	0	0	0	0	474	
10	0	0	0	0	472	
11	0	0	0	0	470	
12	0	0	0	0	471	
13	0	0	0	0	471	
14	0	0	0	0	475	
15	0	0	0	0	482	
0	0	0	0	0	483	
1	0	0	0	0	480	
2	0	0	0	0	479	
3	0	0	0	0	479	
4	0	0	0	0	472	
5	0	0	0	0	472	
6	0	0	0	0	479	
7	0	0	0	0	481	
8	0	0	0	0	481	
9	0	0	0	0	479	
10	0	0	0	0	474	
11	0	0	0	0	472	
12	0	0	0	0	465	
13	0	0	0	0	462	
14	0	0	0	0	465	
15	0	0	0	0	466	
0	0	0	0	0	471	
1	0	0	0	0	476	
2	0	0	0	0	484	
3	0	0	0	0	496	
4	0	0	0	0	499	
5	0	0	0	0	495	
6	0	0	0	0	493	
7	0	0	0	0	487	
8	0	0	0	0	483	
9	0	0	0	0	486	
10	0	0	0	0	488	
11	0	0	0	0	490	
12	0	0	0	0	491	
13	0	0	0	0	489	
14	0	0	0	0	483	
15	0	0	0	0	480	
0	0	0	0	0	479	
1	0	0	0	0	475	
2	0	0	0	0	476	
3	0	0	0	0	476	
4	0	0	0	0	471	
5	0	0	0	0	466	
6	0	0	0	0	467	
7	0	0	0	0	472	
8	0	0	0	0	477	
9	0	0	0	0	475	
10	0	0	0	0	473	
11	0	0	0	0	479	
12	0	0	0	0	491	
13	0	0	0	0	503	
14	0	0	0	0	511	
15	0	0	0	0	515	
0	0	0	0	0	515	
1	0	0	0	0	515	
2	0	0	0	0	513	
3	0	0	0	0	508	
4	0	0	0	0	507	
5	0	0	0	0	505	
6	0	0	0	0	505	
7	0	0	0	0	504	
8	0	0	0	0	497	
9	0	0	0	0	492	
10	0	0	0	0	490	
11	0	0	0	0	488	
12	0	0	0	0	484	
13	0	0	0	0	486	
14	0	0	0	0	490	
15	0	0	0	0	488	
0	0	0	0	0	491	
1	0	0	0	0	494	
2	0	0	0	0	494	
3	0	0	0	0	495	
4	0	0	0	0	496	
5	0	0	0	0	495	
6	0	0	0	0	495	
7	0	0	0	0	496	
8	0	0	0	0	498	
9	0	0	0	0	496	
10	0	0	0	0	491	
11	0	0	0	0	488	
12	0	0	0	0	493	
13	0	0	0	0	505	
14	0	0	0	0	512	
15	0	0	0	0	511	
0	0	0	0	0	509	
1	0	0	0	0	505	
2	0	0	0	0	502	
3	0	0	0	0	503	
4	0	0	0	0	504	
5	0	0	0	0	508	
6	0	0	0	0	509	
7	0	0	0	0	506	
8	0	0	0	0	505	
9	0	0	0	0	506	
10	0	0	0	0	510	
11	0	0	0	0	508	
12	0	0	0	0	505	
13	0	0	0	0	501	
14	0	0	0	0	500	
15	0	0	0	0	504	
0	0	0	0	0	508	
1	0	0	0	0	506	
2	0	0	0	0	504	
3	0	0	0	0	503	
4	0	0	0	0	504	
5	0	0	0	0	498	
6	0	0	0	0	488	
7	0	0	0	0	483	
8	0	0	0	0	481	
9	0	0	0	0	480	
10	0	0	0	0	486	
11	0	0	0	0	491	
12	0	0	0	0	498	
13	0	0	0	0	509	
14	0	0	0	0	517	
15	0	0	0	0	521	
0	0	0	0	0	520	
1	0	0	0	0	517	
2	0	0	0	0	517	
3	0	0	0	0	519	
4	0	0	0	0	517	
5	0	0	0	0	513	
6	0	0	0	0	511	
7	0	0	0	0	507	
8	0	0	0	0	505	
9	0	0	0	0	505	
10	0	0	0	0	507	
11	0	0	0	0	510	
12	0	0	0	0	508	
13	0	0	0	0	504	
14	0	0	0	0	500	
15	0	0	0	0	500	
0	0	0	0	0	500	
1	0	0	0	0	503	
2	0	0	0	0	504	
3	0	0	0	0	504	
4	0	0	0	0	502	
5	0	0	0	0	499	
6	0	0	0	0	502	
7	0	0	0	0	503	
8	0	0	0	0	504	
9	0	0	0	0	505	
10	0	0	0	0	507	
11	0	0	0	0	512	
12	0	0	0	0	521	
13	0	0	0	0	524	
14	0	0	0	0	523	
15	0	0	0	0	525	
0	0	0	0	0	529	
1	0	0	0	0	529	
2	0	0	0	0	528	
3	0	0	0	0	524	
4	0	0	0	0	521	
5	0	0	0	0	523	
6	0	0	0	0	527	
7	0	0	0	0	526	
8	0	0	0	0	525	
9	0	0	0	0	529	
10	0	0	0	0	532	
11	0	0	0	0	528	
12	0	0	0	0	530	
13	0	0	0	0	531	
14	0	0	0	0	527	
15	0	0	0	0	523	
0	0	0	0	0	526	
1	0	0	0	0	529	
2	0	0	0	0	531	
3	0	0	0	0	531	
4	0	0	0	0	534	
5	0	0	0	0	537	
6	0	0	0	0	538	
7	0	0	0	0	534	
8	0	0	0	0	529	
9	0	0	0	0	526	
10	0	0	0	0	522	
11	0	0	0	0	521	
12	0	0	0	0	522	
13	0	0	0	0	519	
14	0	0	0	0	513	
15	0	0	0	0	505	
0	0	0	0	0	495	
1	0	0	0	0	491	
2	0	0	0	0	491	
3	0	0	0	0	494	
4	0	0	0	0	491	
5	0	0	0	0	481	
6	0	0	0	0	480	
7	0	0	0	0	478	
8	0	0	0	0	480	
9	0	0	0	0	485	
10	0	0	0	0	489	
11	0	0	0	0	491	
12	0	0	0	0	491	
13	0	0	0	0	493	
14	0	0	0	0	487	
15	0	0	0	0	490	
0	0	0	0	0	491	
1	0	0	0	0	491	
2	0	0	0	0	492	
3	0	0	0	0	491	
4	0	0	0	0	492	
5	0	0	0	0	493	
6	0	0	0	0	495	
7	0	0	0	0	495	
8	0	0	0	0	492	
9	0	0	0	0	488	
10	0	0	0	0	487	
11	0	0	0	0	489	
12	0	0	0	0	489	
13	0	0	0	0	490	
14	0	0	0	0	490	
15	0	0	0	0	490	
0	0	0	0	0	492	
1	0	0	0	0	494	
2	0	0	0	0	495	
3	0	0	0	0	486	
4	0	0	0	0	477	
5	0	0	0	0	474	
6	0	0	0	0	482	
7	0	0	0	0	492	
8	0	0	0	0	491	
9	0	0	0	0	489	
10	0	0	0	0	492	
11	0	0	0	0	496	
12	0	0	0	0	501	
13	0	0	0	0	504	
14	0	0	0	0	505	
15	0	0	0	0	503	
0	0	0	0	0	500	
1	0	0	0	0	499	
2	0	0	0	0	498	
3	0	0	0	0	495	
4	0	0	0	0	491	
5	0	0	0	0	489	
6	0	0	0	0	484	
7	0	0	0	0	481	
8	0	0	0	0	477	
