timestamp,Signal
0,-0.006723361756462449
1,-0.03732514395416689
2,-0.011091109089834916
3,0.033607520109206646
4,0.024398600085728618
5,0.010959519639629933
6,-0.010773099060952748
7,-0.017464983044578636
8,-0.010035361900128752
9,-0.0049567062147073855
10,0.01939739112782114
11,0.04068668336247403
12,0.014904228905145473
13,-0.0009127468671552563
14,-0.004032908473411209
15,0.0013355044513653196
16,-0.00940036079631357
17,-0.009403548852308636
18,-0.003388710438499736
19,-0.0141665525202754
20,0.0006782465965372731
21,0.0031340996959185272
22,0.003292914952972943
23,-0.009864211969841958
24,-0.0019394656727269787
25,0.014698944796535909
26,-0.013518675558633547
27,-0.021978371031960296
28,-0.0070250344297915004
29,-0.004682212448895724
30,0.003950708397261131
31,0.0067193158597791385
32,0.006069294383843937
33,0.006771935929617825
34,0.01056303004961677
35,0.004997374876236265
36,0.006228200922694091
37,0.009712573314551413
38,-0.004988830877441934
39,-0.0050465329492725836
40,-0.033766235427716215
41,0.002811029054318096
42,0.02953664094479621
43,-0.008072572197554442
44,-0.00833702691821928
45,-0.01643862380236882
46,-0.0016141077312807773
47,0.0003416603989546338
48,0.010519229918762852
49,0.0011838294561277857
50,0.0036584863261547845
51,-0.0024087495578542714
52,-0.004389114153155245
53,0.015429236999888527
54,0.001955723491361928
55,-0.07282269382792796
56,0.04757974136750466
57,0.10615328601988258
58,-0.03756794525567494
59,-0.04434409426468243
60,0.019548613837861932
61,0.03269182562741871
62,-0.023541713254976143
63,-0.006212614435484257
64,-0.03265006964093313
65,-0.022736632852780127
66,-0.02924032164229022
67,0.0018992823031359074
68,0.024732478522014725
69,0.03284651780300199
70,0.029064555226242864
71,0.017935833822762315
72,-0.0011514278611123789
73,-0.021440151360515816
74,-0.013226102152373215
75,-0.012273390300687468
76,-0.010128705292699713
77,-0.019210119604495406
78,-0.009320412744440496
79,-0.00950220997627799
80,0.007462375519680851
81,0.007816761318814177
82,0.019001212674790345
83,0.007440529896618914
84,0.01288929905427775
85,-0.007513729213977393
86,-0.044643251249959215
87,-0.05222330564772401
88,0.15930591715104023
89,0.06471588692240039
90,-0.053362944532337496
91,0.015076902200682453
92,-0.042488450375729916
93,-0.05439955873880095
94,-0.056015204764205705
95,0.11573043937902006
96,0.039214488971046825
97,-0.033638080810658263
98,-0.019520541643683623
99,-0.02547612574732464
100,-0.018185909050490077
101,-0.028568994367357242
102,-0.014663372625523046
103,-0.013188467424792853
104,0.004314218264941775
105,0.0032191628276944575
106,0.01138273430942776
107,0.006492895530449676
108,0.016175243257739245
109,-0.004410687520269
110,0.013176450487956215
111,0.01370891594446352
112,0.01049361846842001
113,-0.008960385441491608
114,-0.028950526749633138
115,0.023782847614256253
116,0.04393743761593003
117,0.002460373334254621
118,-0.007939279276608514
119,-0.019404674183156084
120,-0.005987497327701645
121,1.2609094869105858e-05
122,0.01692244650096335
123,0.011721193815348386
124,-0.0038788472175810057
125,-0.015260871158006091
126,-0.025774744896909563
127,-0.014615789118126998
128,0.008748161672309896
129,0.017773643537085836
130,0.010105974535188257
131,0.021164723616026955
132,0.0023472207679945574
133,-0.017242749809159096
134,-0.03149009440453712
135,-0.01889833338597638
136,-0.019371955957299652
137,-0.008669047746714238
138,0.008815491866526389
139,0.03762906655293608
140,0.01761252258024526
141,-0.0009129817379251517
142,-0.014649373768378986
143,-0.012723662702596627
144,-0.0038072403371378436
145,0.003936065366738208
146,-0.020475604521492826
147,0.020950677899600402
148,0.06840864270560515
149,0.008109162427382086
150,-0.025439380624209317
151,-0.00985040571169912
152,0.007605887031174529
153,-0.015646813382707625
154,-0.01264557463230501
155,-0.003189792962714027
156,-0.003075863140763982
157,-0.0058704011020680215
158,-0.001597401186140615
159,-0.014889329687830554
160,0.0034710600832032514
161,0.03288615388826055
162,0.02832106212467001
163,0.0050727987653801845
164,-0.006422001329742431
165,-0.019409724382685862
166,-0.018727096189163028
167,-0.0021727873334874397
168,0.008797358738829102
169,0.006920656574432251
170,0.00623251434460829
171,0.0029821658098782354
172,-0.0034390252809592147
173,-0.012751753814198451
174,-0.022389260134187225
175,-0.01163610667326054
176,-0.0024019593159385014
177,0.006329953471007638
178,0.007218281252538796
179,0.0071730834170004604
180,-0.0026654355433301455
181,-0.0014424092151443905
182,0.000708904419668744
183,0.0038310557314707294
184,0.0022976078731726853
185,0.008254549983769253
186,0.0046705101237681824
187,-0.00018895789036242096
188,0.005714385034519952
189,-0.004692457983630681
190,-0.007700704237563817
191,0.006351081062955288
192,-0.007022293677189293
193,-0.002363359632393513
194,0.031421499901489694
195,0.025753799792036458
196,-0.0034235698692191897
197,-0.008720032285860147
198,-0.0097587403456205
199,-0.024554109848275912
200,-0.007465971789083674
201,-0.0057967399962561925
202,-0.008149809429582749
203,-0.0038761275243546535
204,0.0023083514765778225
205,-0.03834070032244316
206,-0.035368390612143696
207,0.09846845305928523
208,0.05978869079415461
209,-0.01023671216892709
210,-0.0030757742787197585
211,-0.035427451619793146
212,-0.013318184359251289
213,-0.020976267439615084
214,-0.002487258978505106
215,-0.001359186804822752
216,0.018242385795754924
217,-0.022100113970007683
218,-0.08892467292411331
219,0.13858965560560924
220,0.07894401341712315
221,-0.07016319789633055
222,-0.025448330469765648
223,-0.07685040712300735
224,0.08715166831111534
225,0.030726199934296268
226,-0.024652846160233756
227,-0.00816735155136569
228,-0.025101608259798066
229,0.0026541703660748154
230,-0.011185619123791544
231,0.005815813654350426
232,-0.003053410980273406
233,0.0001119209783682247
234,-0.009433034375592165
235,0.012468402999329836
236,0.0013971490066082906
237,0.00519634237388927
238,-0.00889929022973668
239,-0.022383454154988502
240,0.008754938349215343
241,0.07077045101712273
242,0.004968108640788883
243,-0.015179388643673686
244,-0.010768764890139388
245,0.0014920912468578329
246,-0.011349774946902407
247,-0.024502335563704604
248,-5.348036948419829e-05
249,0.006457293282695368
250,0.001724356722261934
251,-0.006651392023547437
252,0.00838704412568929
253,0.05661418312322856
254,0.041796327956148516
255,-0.03132175697737908
256,-0.0383602947133808
257,-0.026804752476515505
258,-0.021533986352233907
259,-0.018258014333801906
260,0.016229144207619013
261,-0.022589675445635157
262,-0.006078604127428892
263,-0.00920485323040976
264,0.0007025775734922461
265,0.004853057468795174
266,0.008950706129183788
267,0.023132781960324672
268,0.021724962151715946
269,0.007241419748537493
270,-0.0017767499629962255
271,0.004594739686619106
272,0.009333655665800559
273,0.01735580388832962
274,0.008904048141835085
275,-0.002690742547215172
276,-0.0060859825033957645
277,-0.004946129880924908
278,-0.015330101152210831
279,-0.0066286152324143924
280,-0.008384163703228168
281,0.002607081643844527
282,0.002406533452414537
283,0.0036947689125115587
284,0.01805855279673043
285,0.008167473565312293
286,-0.010300604067749663
287,-0.0053909486440927214
288,-0.00889723588542642
289,-0.00689895023115226
290,-0.011213961245890483
291,-0.0037340394725035473
292,-0.005913086039386384
293,-0.0036506379407757698
294,-0.0061754302342800025
295,-0.002227337029916983
296,0.006789370038916135
297,-0.0016058711103769524
298,0.00386843917870882
299,0.006340679187321672
300,-0.0005837899713883633
301,-0.0012329076451207503
302,-0.006002402852522761
303,0.018889479872960267
304,0.024671146842933304
305,0.011315079333631978
306,0.0060916802996848615
307,-0.012445877018066218
308,-0.0027799205026461495
309,-0.008689118382751385
310,-0.006964607840726643
311,-0.014120238242896556
312,0.002016384646063617
313,0.01429820743142879
314,0.005876498995228378
315,0.00043240075434721956
316,-0.008648396011923371
317,-0.005598822463047382
318,-0.002766060070478739
319,-0.007940521466333395
320,-0.007845234229011334
321,-0.0448934752636473
322,-0.042030877454994495
323,0.09881053079541716
324,0.0715939021484818
325,-0.00578743027282675
326,-0.004827367495404147
327,-0.03340783963967772
328,-0.01703248395278748
329,-0.018089731292621074
330,-0.022445153033377747
331,-0.037012355669301465
332,0.06581604176204481
333,0.06299932088158629
334,-0.010147075444248203
335,-0.02214616713771253
336,-0.021154564365604846
337,-0.002855805790421157
338,-0.011052236693335101
339,0.007358654749226396
340,-0.00975738652195028
341,-0.008371906079732186
342,-0.00586715249252685
343,0.006208334810080934
344,-0.0012169043737298903
345,0.0015792107969642179
346,0.006672609588678357
347,0.005563607722356218
348,0.004971174625897466
349,0.009008745848297002
350,0.007369390404479218
351,0.013058679872769666
352,0.008431255370403278
353,-0.006349251576304226
354,-0.011913358889390074
355,-0.011573385143826168
356,-0.008096021443128126
357,-0.009959173180582896
358,-0.006427769614674542
359,0.002039357385520201
360,0.008783862948193494
361,-7.076129249274088e-05
362,0.017579547187046237
363,0.020087292099920086
364,0.0029856980129887075
365,0.010873393363803784
366,-0.01235683050586302
367,0.013705043570473072
368,-0.010539564483426604
369,-0.04004984079631096
370,-0.007596806930717183
371,-0.012871063202790625
372,0.0014635852273066075
373,-0.015491383188359626
374,-0.03066766083786189
375,-0.03418488268183796
376,0.006488226694486815
377,0.08172127261583624
378,0.12966262706686457
379,0.005726602391355164
380,-0.0433080619948392
381,-0.029540591317481952
382,-0.034757940291218314
383,-0.016716302038610957
384,-0.009504475691853132
385,-0.005914295205297078
386,-0.011402232650966314
387,0.0020067285096230167
388,0.0008435921556905809
389,0.012666555201975063
390,0.0016111530485222163
391,0.005211426257009245
392,0.0023301168794993554
393,0.007779328074382039
394,-0.0293253505885968
395,0.03616162127461017
396,0.036008293465498976
397,-0.016018071133192233
398,-0.003908137984088712
399,-0.021686547648256962
400,0.0030764630480662504
401,-0.00575849155310721
402,0.0009668991266400702
403,0.01451828598660864
404,0.026974363073230485
405,0.0030279481948514496
406,-0.01924312140389429
407,-0.018361469633588694
408,0.0008008222260931022
409,0.013198130680231351
410,-0.0037193912973650474
411,-0.007186993802400265
412,-0.00439740604880732
413,0.0018589974018139014
414,-0.0005250414273032934
415,-0.005713462603858702
416,-0.016104373230702785
417,-0.013510755560645708
418,-0.006128760483843622
419,0.010065525401603187
420,0.0010083448469420664
421,-0.004505682368597689
422,0.008485787791577376
423,0.004655695113058715
424,0.04873324350805318
425,0.019541103977803398
426,-0.030134065727966418
427,-0.00929205187114176
428,-0.01990975402072453
429,-0.010463594848303307
430,-0.006192095683879337
431,0.001945487431269547
432,-0.0052115872840243875
433,0.004089110913047757
434,0.014711279847000627
435,0.007562078795341183
436,-0.0004741771213159201
437,-0.006695623485012842
438,-0.05784303885341892
439,0.027970272490192877
440,0.09742995557989498
441,0.0061691267672255995
442,-0.006113382240357273
443,-0.021237412114666232
444,-0.003134696425228068
445,-0.018770995050806545
446,-0.01916851850807416
447,-0.012744368572397136
448,0.0033318776226514846
449,0.009330292789958432
450,-0.0013034056970850638
451,-0.007683681849917679
452,0.00921402848904888
453,0.0272062034166091
454,0.002345376428424477
455,-0.020968594311746674
456,-0.016281781840532406
457,-0.001070698396033425
458,0.012079395302453336
459,0.015995140631879942
460,-0.007333921521553311
461,-0.0039636617788129935
462,-0.021454238211638107
463,-0.004485073173175437
464,-0.01513778775711089
465,0.017154218661784765
466,0.005172308564807781
467,-0.009932525329638292
468,0.010589203359130533
469,0.015994582940164644
470,0.03898209478656492
471,-0.004964949191740446
472,-0.006804015512612505
473,-0.003439230495925288
474,-0.008796637752939141
475,-0.01571877181703662
476,-0.009501659426155743
477,-0.005210187610472587
478,-0.00401409515599376
479,-0.0034058317987475054
480,-0.002427746372889868
481,0.005418958234749657
482,0.005246503791238441
483,0.004166053983450473
484,0.006100226189253275
485,-0.001712865795714195
486,-0.002948478771386563
487,-0.003354544025132144
488,-0.0019369443027929222
489,0.003665825730052346
490,-0.003603175425782538
491,-0.008425722169236163
492,0.020233300348214925
493,0.03912962729983614
494,0.023548571684559566
495,0.017710723390610673
496,0.003962550439959977
497,-0.024060242893775678
498,-0.036517752286714514
499,-0.0110738672181347
500,-0.020135285020864313
501,-0.019053860697140223
502,-0.013940858768182008
503,-0.01679992898254082
504,-0.0023121971854040916
505,0.017059845660405335
506,0.009133655536624189
507,0.0015707541653225705
508,0.0016598840295973631
509,-0.0029013218555927218
510,0.008173585794056137
511,0.011241320096426007
512,0.009506714183574334
513,-0.015113952754365376
514,-0.017740135413087974
515,0.06087484623282356
516,0.043755842595835384
517,-0.012868255239645784
518,-0.003530765450189828
519,-0.016540043894927775
520,-0.006083356244604575
521,-0.01834360412025831
522,-0.04854959683595964
523,-0.002250825813732281
524,0.08478126802000137
525,0.003277658505855772
526,-0.045040797243655166
527,-0.11317692458376713
528,0.08170375635144539
529,0.09818698040487316
530,-0.08553903096859197
531,0.09020323506722044
532,-0.0017198144517583574
533,-0.014286722097910983
534,-0.028937863682899856
535,-0.028948713684447545
536,0.004942489706081287
537,-0.0323399357492585
538,-0.001733832334107033
539,0.001091428151749931
540,0.009747228086813628
541,-0.02393534042706041
542,-0.036698568483818694
543,0.016114299747724273
544,0.024149418391153525
545,0.002760379790687254
546,0.025351933951928283
547,0.006310374974160906
548,0.0016390420839201073
549,-0.007133811015387934
550,0.011479971176947866
551,0.006904107125741002
552,0.004408215639379029
553,-0.0005313863276149022
554,0.002692857947074953
555,0.0025610740169000126
556,0.0007205250288842783
557,-0.0031702473101706107
558,-0.01829838880282182
559,0.010005546229227141
560,0.01678510385041227
561,0.002726538210874479
562,0.012976144902608903
563,-0.0002662809716007038
564,-0.010086347365806896
565,-0.00975516664401955
566,-0.013022834292994858
567,-0.010185986881084786
568,-0.005459382959853609
569,-0.002033029170813912
570,-0.0035053703687156733
571,0.007187567403622423
572,0.006174614506868827
573,-0.0036767097140712503
574,-0.011872816856073078
575,0.00020096108836395454
576,-0.000794058475382619
577,0.00417293519249343
578,0.0024893318183359537
579,-0.007990046322712387
580,-0.0038192366870361608
581,0.0064954108460001485
582,0.008827997474425614
583,0.0006659463314221091
584,0.007416875643568611
585,0.026862329900028018
586,-0.004315759263747089
587,-0.0026172558389292106
588,0.003236177304531051
589,-0.004589845866185656
590,-0.009431467102792935
591,-0.013190968262392171
592,0.0004300352670289342
593,0.006507661368341775
594,-0.0006921790214273714
595,-0.014208773099757653
596,0.0008618395835488912
597,0.009393524487918867
598,0.004315354873317526
599,-0.00574005234302167
600,-0.007030742978040882
601,-0.04926950747325433
602,0.016590562160414327
603,0.06270271890047403
604,-0.006283737455546155
605,0.0034497419333271526
606,-0.004640036768986829
607,-0.010948527404345466
608,-0.010748797677588212
609,-0.01085803973043944
610,-0.008683734255704975
611,0.0008787265691273319
612,0.0008059883659674583
613,0.03357727455154312
614,0.03625317298568893
615,-0.012014374094555892
616,-0.008104989770055334
617,0.010023422922620302
618,0.011660002631032404
619,-0.006143396735813133
620,-0.020788396528991674
621,0.004368030012873662
622,0.005722998653708534
623,-0.018843198703884637
624,-0.007404722547889859
625,-0.026650819565797654
626,-0.008598399932564636
627,-0.01606456440489134
628,-0.011242904694753666
629,-0.008214382838980138
630,-0.04273880930814038
631,-0.0211893786479061
632,0.04174057963234938
633,0.1229469516751236
634,0.09304036983658412
635,0.05000642071654269
636,0.04517887831516422
637,-0.06412434339512675
638,-0.07821926849762653
639,-0.07318506111423675
640,-0.04561818143800346
641,-0.024611476481477983
642,-0.014159695374942625
643,0.0041790617373773774
644,-0.0057448069890290825
645,0.004020651297003543
646,0.009920154807494329
647,0.015446728106627259
648,0.004883825415409677
649,0.013723942975790607
650,0.0044875973534306175
651,0.01632967618021735
652,0.014710232195196812
653,0.014342902165894853
654,0.01684600370381499
655,0.01665803904411815
656,-0.00013962105933009502
657,-0.02757142716161749
658,-0.0189782521931876
659,0.037918219587845206
660,0.03835928453769158
661,-0.001119832382044667
662,-0.02938802262640053
663,-0.02127046464376681
664,-0.014373948042547447
665,-0.006345781318691903
666,-0.012398293564505943
667,-0.006919213039767475
668,-0.013425197626155213
669,-0.005354375199026339
670,0.002665642461785413
671,7.931179100622264e-05
672,0.0017173076101316895
673,0.0030953338179578807
674,0.0059946029136772275
675,0.0038011306102289835
676,0.012048705099063112
677,-0.00637413364111733
678,-0.0036885397048518377
679,-0.004592026329255658
680,-0.0011765569440257955
681,-0.00035819774651712
682,-0.0014978397416271147
683,-0.011028562008508387
684,-0.02173081461655713
685,0.04726506533068482
686,0.07537221816486081
687,0.028885467563094788
688,0.009845242074512154
689,-0.036258013757437396
690,-0.03460618185649062
691,-0.03974328068046415
692,-0.029361099607942427
693,-0.01563697416251177
694,0.01626275712651322
695,0.0009324153737080357
696,-0.009412357053451793
697,0.0007556723416450827
698,0.004878261925091052
699,-0.00596602891869135
700,-0.021099334837778372
701,0.07221199993947319
702,0.05003845308476869
703,-0.014106049130788296
704,-0.01079317053570953
705,-0.02227528182422221
706,-0.015791605099479196
707,-0.014977134818267259
708,-0.006295431188648904
709,-0.004009247646588561
710,0.006233064687462342
711,0.02434649187041306
712,0.01097303057837476
713,-0.002473674541975472
714,-0.005236311952791174
715,-0.011964316612786085
716,-0.011407460632406137
717,-0.006550650278522845
718,-0.0009256378448852069
719,0.02444148532562143
720,0.0062666918190463685
721,0.023749434383490534
722,0.025287615083680222
723,-0.008741513660304649
724,-0.015766667652099504
725,-0.019149535105558474
726,-0.023681979307975623
727,-0.019731167872434407
728,-0.04242741932586766
729,-0.025909697394436597
730,0.12314267281642662
731,0.07351777760782677
732,-0.026635937319712755
733,-0.02072839139917433
734,-0.0514064261431887
735,-0.01571430809315664
736,-0.025501797665550704
737,0.020995240729955296
738,0.01178535489485926
739,0.003673454168335964
740,0.009356070078436135
741,-0.019681767715706917
742,-0.006414675618157952
743,-0.0040644461359220785
744,-0.0017392417806517159
745,-0.0020564533409694677
746,0.0019315099559751477
747,0.008644202812713527
748,-0.045837217143345134
749,-0.02201869960423913
750,0.09874337779658389
751,0.09373486436738972
752,0.022646516788667283
753,-0.048554653260668754
754,-0.03761987801555702
755,-0.01072355607772774
756,-0.016661540073234407
757,-0.09254668122721021
758,0.0038452336525046267
759,0.13695404813958084
760,0.01598054082950365
761,-0.04547190573530829
762,-0.018825183493028967
763,-0.0340694373743399
764,-0.01181720091315456
765,-0.024396036999326846
766,-0.013875961925559975
767,-0.028681130521508516
768,0.05606693199892417
769,0.09552710517051431
770,-0.0071797249588381375
771,0.007173060551091371
772,0.013310554533016262
773,-0.016259232459148308
774,-0.02335664737521887
775,-0.029681499780379362
776,-0.022663185199366564
777,-0.011996467198521849
778,-0.009581400564886502
779,-0.0025718832392806167
780,-0.005376069962088857
781,0.006421114278080051
782,0.016099877537636476
783,0.027218882930813062
784,0.008720071280472358
785,-0.002523855459782681
786,-0.0011103356990843413
787,0.008889612602135348
788,-5.2176976447874945e-06
789,0.001821302811014388
790,0.005350741835874357
791,0.006318764373091543
792,0.008492567788432045
793,0.013073585413929018
794,0.006754670468644017
795,-0.0029730068236757884
796,-0.01118615115558117
797,-0.01686489093519092
798,-0.017450865637907743
799,-0.006826499847410638
800,-0.006764316332185043
801,-0.012344521619040844
802,-0.005795388197868576
803,0.007883101434810058
804,0.008288624681402195
805,0.015614246278001787
806,0.01520478806638472
807,0.010722514585712788
808,-0.0003199145411491534
809,-0.025050367647780458
810,-0.014030036688910827
811,-0.010311322678609515
812,0.0017824484783682051
813,0.02272176575633702
814,0.013306672224547376
815,-0.01366093369958829
816,-0.009869249340883082
817,-0.01641223926493291
818,-0.03625927996102742
819,-0.053373722873075354
820,0.07373040842179907
821,0.06693875322284137
822,0.0068128320593461725
823,0.017669378004247123
824,-0.024428369990396787
825,-0.009502576253576688
826,-0.023213299548711742
827,0.002098680829276769
828,-0.023766513259286394
829,-0.029171964718886032
830,0.05853392388506502
831,0.04791832697021729
832,-0.034630443712779076
833,-0.0010342819825940163
834,0.031110268358258135
835,-0.0020293813911247717
836,-0.01439240672845668
837,-2.6006388851783097e-05
838,-0.01067175400230808
839,-0.015439635634815124
840,-0.010234775936516316
841,-0.0113814686775746
842,-0.0076768156777459046
843,-0.00027832017308469965
844,-0.004969769449248243
845,0.014767169593514585
846,0.025710435924067035
847,-0.005877376557392219
848,0.002191664304336932
849,-0.005129074807949549
850,-0.0005847373971352189
851,-0.010523515720720713
852,-0.0008868679240742246
853,-0.006541191265518737
854,0.006278434486129815
855,0.007616245711873512
856,0.0010039950261517237
857,0.00944643962094071
858,-0.00014289226458131903
859,-0.009068195834539942
860,-0.0037404482540661504
861,-0.00024643386966266036
862,-0.011962986530145648
863,-0.0278610550145424
864,0.012191230563969133
865,0.05250817621827006
866,0.010741518923311353
867,0.010914049184878647
868,0.007139835079028531
869,-0.01705906844063055
870,-0.014593260747676926
871,-0.001914615982356779
872,-0.001684432144748147
873,-0.02425564046798443
874,-0.04206726248131468
875,-0.05953791150527067
876,0.12246376488728436
877,0.16900322025923545
878,0.022076483758241686
879,-0.01774857160220852
880,-0.09047718409921432
881,-0.068891653716816
882,-0.07325621205503795
883,-0.035894975420270224
884,-0.029042724928017113
885,-0.013023109674770812
886,0.00013209288111053208
887,0.01283673439505062
888,0.022870948304338758
889,0.016940393411350056
890,0.025592581401579072
891,0.01659914588756659
892,0.01729387911383581
893,0.012061080513049435
894,0.0270328760400898
895,0.015084849819072939
896,0.017569511799922312
897,-0.0005719160005581061
898,0.001113389104645323
899,-0.00628143527162538
900,-0.007574119553167962
901,-0.010534530558212027
902,0.0005920064247881794
903,0.0012834056683661676
904,0.00295146833113721
905,-0.0010636576218391743
906,0.0005051406715145213
907,-0.045564396010515644
908,-0.02818382950195586
909,0.0851037267414756
910,0.03127882728212025
911,-0.09815945003889805
912,-0.020220597752793612
913,0.0748241445850386
914,0.00665600806706302
915,-0.030446911864710387
916,-0.01508248056054428
917,-0.04655316681113354
918,0.024922389027057727
919,0.03171649937949425
920,-0.015346097779857189
921,-0.0011513474644972016
922,-0.010824189185561224
923,-0.0028671572154006873
924,-0.01980615203498614
925,-0.002971299693507269
926,-0.004007090360450516
927,0.0004994724190501842
928,-0.003277211410029058
929,0.030853060426841602
930,0.027262461222293817
931,0.0112205530515272
932,0.0004915636852752675
933,-0.005751081376860484
934,-0.00020295070042948907
935,0.00249163946635678
936,-0.0009735637026686075
937,0.0015352314600650188
938,0.005618271483597779
939,0.0020279263170312964
940,0.012129851561871314
941,0.000284618242255754
942,-0.005218285788068103
943,-0.011446160121343802
944,-0.0032306190452436323
945,0.0021907232078209674
946,-0.0007397804526188875
947,-0.0033036623841895384
948,0.0007003225564902521
949,-0.00604460909755409
950,-0.005339144759390219
951,-0.0015326750951565014
952,-0.007730484508264305
953,-0.007550932378464086
954,0.0023178850113144724
955,-0.0029129947800316264
956,-0.0018655226988269717
957,0.002911961368249321
958,0.016536157111832504
959,0.012723233742865806
960,0.0034930264326233453
961,0.002253605803290013
962,-0.012572051610226192
963,-0.04694784458797729
964,0.02503338392773028
965,0.05998628546771779
966,-0.01969701359440846
967,-0.015667599808263075
968,-0.016022503046586895
969,0.017335653245054393
970,-0.0030568176408536964
971,-0.017558998490075296
972,0.009104014863273011
973,0.007269058826105971
974,-0.008382982724862553
975,-0.014266871570246437
976,-0.008857470821677031
977,-0.010517141442776335
978,0.004855504142336051
979,-0.002618732044372886
980,0.007041131290032936
981,-0.004521915454140792
982,0.005984941740389008
983,0.025327121719565058
984,0.013347549858747188
985,0.003497262154417643
986,8.646828692551387e-06
987,0.001688943252997531
988,-7.332404384618324e-05
989,0.00020085623175552549
990,0.004123337052293804
991,0.0007980066677980456
992,-0.0018516269094653167
993,-0.010373167153106495
994,-0.0038366559753249896
995,-0.0005945703391365513
996,-0.0027710383695912603
997,0.0020441670683124125
998,-3.84986504356373e-05
999,-0.006284547227420853
1000,-0.01156989715795272
1001,0.000997315089872941
1002,0.00014906649113741177
1003,-0.002721591051090608
1004,0.011048077618160661
1005,0.015197851283664642
1006,0.008172885018186773
1007,0.0006708432867354617
1008,-0.00567141818491003
1009,-0.01728861358698905
1010,-0.016785421270153117
1011,-0.008120414522462184
1012,0.06154824005134986
1013,-0.03193306912374654
1014,-0.00941292037036484
1015,0.1374332775992187
1016,-0.03454054750813461
1017,-0.06471546306835708
1018,-0.048545975599296465
1019,-0.037207395997836054
1020,-0.01492758655224284
1021,-0.01107302059924543
1022,0.000758839722190513
1023,-0.00011097044111136115
1024,0.012454280494923437
1025,0.012572186010232992
1026,0.019241897908020174
1027,0.005482349274264858
1028,0.012070528896842833
1029,0.013008581183406516
1030,0.015409025379687453
1031,0.004871210856526776
1032,0.008249427904596176
1033,0.002078829101859579
1034,0.009942111563682634
1035,-0.005254471164820258
1036,0.00019228820995321506
1037,0.0009653987468636761
1038,-0.0035595357175679156
1039,0.00809810448042867
1040,0.01819978841760269
1041,0.004717290713771032
1042,-0.0005492057276229355
1043,-0.011769515365104762
1044,-0.016815405146753035
1045,-0.026430687794637326
1046,-0.016556298575321628
1047,-0.0016456444962721552
1048,-0.0063468549971871305
1049,-0.009318095070477367
1050,-0.01496586471748503
1051,-0.004926936452150813
1052,-0.0024128909834197857
1053,0.0011242553951556385
1054,-0.044351564401761336
1055,0.017211733670299333
1056,0.11603154550544893
1057,0.03754496960786885
1058,-0.028299409384325326
1059,-0.013075523159054608
1060,-0.027368704237398185
1061,-0.010383673778862363
1062,-0.015337842872152547
1063,-0.0003069484257293073
1064,0.00446456153479413
1065,-0.0029708509033003205
1066,0.016674888181169505
1067,0.021942846900872847
1068,0.00838280801112101
1069,-0.0036598646183323355
1070,-0.011769536717834036
1071,-0.01233764552809911
1072,-0.023258265799225044
1073,0.018680455229759255
1074,0.011055042138870519
1075,-0.010216429398754522
1076,0.003927405122200325
1077,-0.007166290016435973
1078,0.004759295856426725
1079,-0.004881640944881744
1080,-0.004197468303159268
1081,0.0023192123422522137
1082,0.027892041713605042
1083,-0.00015966571528710626
1084,-0.001684682908501078
1085,-0.004537485066369683
1086,-0.00039988245850282843
1087,-0.006316397870001417
1088,-0.004318137000594372
1089,-0.003530791643093202
1090,-0.005865216471047689
1091,-0.003257631213973742
1092,-0.0033510940481266977
1093,-0.002133146479769015
1094,-0.0036433172952400443
1095,0.010812818416057406
1096,0.0002429228210775302
1097,-0.00690986728468794
1098,-0.0030522402234585775
1099,0.006657662464737693
1100,-0.002666981221725413
1101,0.001659380515186066
1102,0.014287617695293155
1103,0.024537082977092815
1104,0.0017758632707042445
1105,0.0025502755701197247
1106,0.00023573920754948324
1107,-0.018523552930841253
1108,-0.012549200287837344
1109,-0.004561963352854898
1110,-0.006162413111097302
1111,-0.01256859495939373
1112,-0.005019239044167604
1113,-0.002320697005219873
1114,-0.014513421828476574
1115,0.04356259791389839
1116,0.062458767640572364
1117,-0.0031545626478277954
1118,-0.01629543051322486
1119,-0.023971796534087396
1120,-0.0487610776003536
1121,-0.010344113953666596
1122,0.05621905566900641
1123,0.0031606252524570364
1124,-0.04650269934507597
1125,0.03779326437138694
1126,0.0731063328330269
1127,-0.01702447558776344
1128,-0.04885031954504033
1129,-0.03312253957295139
1130,-0.02475833398750098
1131,-0.012714858383988129
1132,-0.008342541363685617
1133,0.016142104819194255
1134,0.01585283114604547
1135,0.010918962784336878
1136,0.0055633801307826344
1137,0.0006989202923299732
1138,0.002944583384365925
1139,-0.0016990492498051048
1140,-0.002572828479227707
1141,0.009651784551159082
1142,0.012528980508398468
1143,0.010122848326428575
1144,0.006129000643549114
1145,-0.0006109297336079258
1146,-4.9793784410107414e-05
1147,0.0030098774510585284
1148,-0.003957129160382874
1149,-0.0026857030742972717
1150,-0.00970666673670489
1151,-0.004783758438654316
1152,0.009520171008074837
1153,0.0019636602962462644
1154,0.0008352081813876987
1155,-0.0064125755116976445
1156,-0.0032543889971925278
1157,-0.01174186729417447
1158,-0.006316302341116024
1159,-0.0028758681890359156
1160,0.001966418945939607
1161,0.006179611348663534
1162,-0.008464292005952482
1163,0.0018375238152919787
1164,0.010718830288473202
1165,0.00013074352203974043
1166,0.007261813644076957
1167,0.005789954122040891
1168,-0.0033330290119352284
1169,-0.009845031644151151
1170,-0.0023924131302965864
1171,-0.0067973804027524065
1172,-0.00587350942362696
1173,0.003494389619609647
1174,0.0018429941391371139
1175,-0.019009484432470206
1176,0.0034401145230491016
1177,0.025492305151253888
1178,-0.011095590902489225
1179,0.0046178242922967384
1180,-0.0038478682454150624
1181,0.018352069808931247
1182,0.032694411605593235
1183,0.013306574512929535
1184,-0.023427082619393753
1185,-0.010777620773651759
1186,0.008066086820254397
1187,-0.00382519469443894
1188,-0.007732951374792532
1189,-0.02180414517493078
1190,-0.01008418794657902
1191,-0.010712695917625806
1192,-0.0046916482665922184
1193,-0.0006813137884839754
1194,0.008047744855654767
1195,0.0017558065765619912
1196,0.006724411924171775
1197,0.01201922207159739
1198,0.013117863033407735
1199,0.007428873962076215
1200,-0.004230141296377233
1201,-0.006384093485760512
1202,-0.002219697652230568
1203,-0.0009949491090382907
1204,-0.005687626895570893
1205,-0.01110622741965602
1206,-0.005103960233322508
1207,0.002226695511287853
1208,-0.004298315529851684
1209,-0.004207187180867971
1210,0.007135210017117002
1211,0.020064337019189114
1212,0.020883851553626386
1213,0.035766733336719286
1214,-0.008420230358432704
1215,-0.02249152304898764
1216,0.05835879406375469
1217,-0.01976403341985053
1218,-0.054809330611582746
1219,0.0020035468687324446
1220,-0.0431795805057532
1221,-0.015454242990728603
1222,0.0373421808715071
1223,0.003956777791673257
1224,-0.015843199825726906
1225,-0.034639330091192584
1226,-0.016945814365814837
1227,0.03782680017503778
1228,0.021076903442868646
1229,-0.03830566581571987
1230,-0.005985429556130933
1231,0.10477671300539979
1232,0.027159742095347814
1233,-0.019738334544387687
1234,-0.01701726421483025
1235,-0.026741539906400665
1236,-0.003307102370841239
1237,-0.009017450834348253
1238,-0.010045334666452504
1239,-0.009237047422316774
1240,0.009462701783498624
1241,-0.004637474399432944
1242,-0.004568334683032119
1243,0.002121773313452667
1244,0.00731953167337024
1245,1.1599612695634837e-05
1246,0.007972025034025018
1247,-0.0011219774147382781
1248,0.0049519529050047004
1249,0.012172746783462633
1250,0.007809629850387301
1251,0.0024433825396968038
1252,-0.014739200167212096
1253,-0.0033548851967362143
1254,0.003769381459347642
1255,-0.0003626842153608336
1256,0.0005726399294595135
1257,-0.0011589361476494614
1258,-0.010338228202494037
1259,-0.009331175632248796
1260,0.002683475722382372
1261,0.005529494487979823
1262,-0.003628581171772194
1263,0.003637729535589218
1264,0.007345197626638013
1265,-0.005633247446400778
1266,-0.010206655824961237
1267,0.01484591788796532
1268,0.025921763232178093
1269,0.007466095154914223
1270,-0.00859697623404634
1271,-0.007229628085997681
1272,-0.014855556193555487
1273,-0.02178569179383958
1274,-0.01141603481991719
1275,-0.004420238031259561
1276,-0.003477982401006118
1277,-0.001336731693615369
1278,-0.0026388005788340364
1279,0.01048218768589611
1280,0.011566954597196385
1281,0.0071492657324340615
1282,-0.005303336644039789
1283,-0.0007745177402596407
1284,0.031140369977866185
1285,0.012241037872812645
1286,-0.0026475911806299853
1287,-0.0020051314172679514
1288,-0.029684588541827442
1289,0.018719239793970385
1290,0.04534039758454404
1291,-0.010934134025387371
1292,-0.014021332562398531
1293,-0.014120739921390686
1294,-0.009543250387922418
1295,-0.013674206472997838
1296,-0.009913297818110893
1297,-0.00829811600855291
1298,-0.0013693591718948635
1299,0.002656746841949005
1300,-0.003977206720950385
1301,-0.002566689328676996
1302,0.0032011262093712446
1303,0.006803228822417162
1304,0.008171961996373748
1305,0.007984936851785729
1306,0.0022913412776293367
1307,0.0032511430255628485
1308,-0.0008560999150463051
1309,-0.0037515647047938333
1310,0.002841683968262586
1311,0.013483007461638465
1312,0.004630190998797098
1313,0.003391172422173421
1314,-0.0021022153272339554
1315,-0.002217901549933306
1316,-0.007422834311149079
1317,-0.02235233406517832
1318,-0.022353980472040496
1319,0.003108620586578164
1320,0.006957527967312166
1321,0.02057652428676514
1322,0.03453981136820273
1323,0.037836524814611104
1324,0.03613604034950712
1325,-0.004676856887557278
1326,-0.03449727229384471
1327,-0.07566743033483214
1328,-0.0415863795765775
1329,0.03936291346877151
1330,-0.0014392715623385882
1331,-0.027335245016059405
1332,-0.04749959862482534
1333,-0.054055975532422286
1334,0.09072457475193715
1335,0.05572343422896594
1336,-0.021877956255169424
1337,0.0034316875044354614
1338,-0.005533639805773519
1339,0.013151100918531665
1340,-0.008463230363265259
1341,0.0011721838685590721
1342,0.0018376187322018608
1343,0.008390826700006383
1344,0.004216354432565898
1345,0.005922525684507789
1346,0.004960202401146807
1347,0.0032937851042151786
1348,0.009121547446631654
1349,0.00030602113680401437
1350,0.002820595616129573
1351,0.0005697674451170757
1352,0.00769714477795121
1353,-0.005426833631034418
1354,0.004131419950520409
1355,-0.019601869798153027
1356,-0.004137532406549765
1357,0.04654520116379864
1358,0.010010575603748444
1359,-0.028341700239434352
1360,-0.025593096807145835
1361,-0.015834580713435065
1362,-0.010235851908105817
1363,-0.01219224493352437
1364,-0.004952684216094108
1365,-0.008070156520991453
1366,-0.0052792676056354695
1367,-0.005781032331648799
1368,0.005572961924686084
1369,0.005642859651639104
1370,0.003315588712768663
1371,0.009208963409612218
1372,0.006311811928896413
1373,0.00980062834883051
1374,0.0022508369664718045
1375,0.004565149160182002
1376,0.004757558840396239
1377,0.003330411478252717
1378,-0.003771098092079952
1379,0.00517276538374834
1380,-0.0008557221481100327
1381,-0.0039494176474207335
1382,-0.011869355966372848
1383,-0.04901891420273595
1384,-0.04065756661224368
1385,0.10888101342248813
1386,0.12580330625283237
1387,0.029871334124372442
1388,-0.006364333696170149
1389,-0.06025372420341531
1390,-0.0436671497507575
1391,-0.048228316314581396
1392,-0.030017829648208292
1393,-0.022729296336999806
1394,-0.01174964841527856
1395,-0.010295073243118676
1396,7.443539428932111e-05
1397,0.0031329979516248954
1398,0.004089237482718305
1399,0.010712370082469383
1400,0.0034781824864750406
1401,0.011969957399073724
1402,0.014260288098711143
1403,0.012762638693818272
1404,-0.0121329362920536
1405,-0.044321111114489095
1406,0.03731667442142321
1407,0.05583441147744547
1408,0.002078763689159874
1409,0.030669927018728147
1410,0.0010919777971243748
1411,0.011937166000961856
1412,-0.014290313204147417
1413,-0.0062847840994215256
1414,-0.017397629760756983
1415,-0.014808325666937478
1416,-0.017856569634710044
1417,-0.014326825753989986
1418,-0.009844488292688879
1419,-0.005141353942994708
1420,0.005173569507853996
1421,-0.0007707968802242327
1422,0.009991732643275728
1423,0.005276363540078612
1424,0.003781386822608075
1425,-0.006142626717773166
1426,-0.005383112379311886
1427,-0.01893749292663655
1428,0.0023709993999839994
1429,0.009487707441699857
1430,0.026971714200172768
1431,-0.005183597754065792
1432,-0.03614925577637714
1433,0.0750676713439107
1434,0.04084380632762176
1435,-0.03198713960925503
1436,0.02899781904985979
1437,-0.028445907642526715
1438,-0.054306861813542245
1439,-0.037932310832198904
1440,0.005938257528218852
1441,-0.0009909977283985502
1442,-0.005020155540177276
1443,0.008222535850507594
1444,0.0014120765553942375
1445,0.0008458716689383906
1446,-0.0013013029273813738
1447,0.007435118040994936
1448,0.006566709955165317
1449,0.0006936079011436065
1450,-0.003216427387933686
1451,-0.021193312369105075
1452,-0.08950250992017478
1453,0.13822352415804828
1454,0.12354132959080066
1455,-0.06664453570013064
1456,0.01737456298488573
1457,-0.011960898699035969
1458,-0.006445066604592611
1459,-0.03454311098863085
1460,-0.004577065599497986
1461,0.00910623157368615
1462,-0.0027779343359313974
1463,-0.009609999821651817
1464,-0.021527526999738443
1465,-0.017481183106123427
1466,-0.012955185346991768
1467,-0.001749144199013692
1468,-0.011685183520146355
1469,0.017075510601777855
1470,0.0074991733778309875
1471,0.007249828714872552
1472,-0.006274655972898698
1473,0.0007204513517300865
1474,-3.578092798418864e-05
1475,0.00898146572741909
1476,0.0025663500317884783
1477,0.009489735953586648
1478,-0.0013283764012835576
1479,0.0018121827826331795
1480,-0.002485295743993067
1481,0.004655539196483325
1482,-0.0005453350740252955
1483,0.0027979341378719623
1484,-0.012757115794674192
1485,0.02047611397934659
1486,0.022178628482605822
1487,-0.05009929243252086
1488,0.030963253403422333
1489,0.017946596707526023
1490,-0.0113959086185325
1491,0.017218780960222328
1492,-0.007535353106216218
1493,-0.009455639127674755
1494,-0.021230958711904682
1495,-0.010988025447355665
1496,-0.012600548164137878
1497,-0.0031381311276665203
1498,0.005348204806895169
1499,0.004612242008378395
1500,0.002032654093737171
1501,-0.0012305848070337825
1502,0.0032629224195188013
1503,-0.006377666582142635
1504,-0.00221588215341075
1505,-0.002696814049984843
1506,0.0006547706564916309
1507,-0.015885603217318165
1508,0.008997304386316244
1509,0.011732124053766444
1510,0.02373838899582416
1511,0.006119118580513975
1512,0.0022359540415161066
1513,-0.010030492096340252
1514,0.04165038067886515
1515,0.03308386413000418
1516,-0.032805606130046634
1517,-0.011782880968277556
1518,-0.031035379044332505
1519,-0.0692798659360044
1520,0.011097193062915742
1521,0.0855983955335067
1522,0.014634163580714558
1523,5.447988229903512e-05
1524,-0.03198083029859633
1525,-0.023330880577424502
1526,-0.020499486462313185
1527,-0.005892876361932916
1528,-0.0045512861607137755
1529,0.0013608961604370407
1530,0.0025948673195345558
1531,-0.001857201345576263
1532,0.002810101863311442
1533,-0.00023211191618843427
1534,0.0037633465913742004
1535,-0.06376029510362902
1536,0.030253013575397024
1537,0.13523538775653743
1538,0.031907725180292126
1539,-0.02612382926134466
1540,-0.013345599931872593
1541,-0.014804306434490738
1542,-0.01902729669672062
1543,-0.011298474012816844
1544,0.005744880136783549
1545,-0.0169808346919995
1546,-0.0070958299121732385
1547,0.012974999394045514
1548,0.009714094644454805
1549,-0.005754465241917379
1550,-0.0010071231945228184
1551,-0.02752177377944062
1552,-0.024255069265587976
1553,-0.010467928661296023
1554,0.008890048842042973
1555,0.0075291214107072405
1556,-0.03538261206212552
1557,0.011796255230437471
1558,0.034806840537702874
1559,0.009567860164050609
1560,0.007779809216092672
1561,0.00846071059945139
1562,-0.0003718682549038316
1563,-0.004166916435844735
1564,0.0033418037347466567
1565,0.003514565061651575
1566,-0.005075896289963015
1567,0.007459063029515491
1568,0.020097632752076693
1569,0.000833044433946677
1570,-0.007283197929488602
1571,-0.010289238130014212
1572,0.0010304327462938296
1573,0.016475838597178855
1574,-0.011706774808131275
1575,-0.01298644197857481
1576,-0.01653452499186621
1577,-0.015536319327030871
1578,-0.0015167888875867157
1579,-0.001025723652627493
1580,0.017161823346955714
1581,0.013878597392854058
1582,-0.007224018428822898
1583,-0.0017712577931390597
1584,0.0009281520749565659
1585,0.008317447991510449
1586,0.0060397823409267335
1587,-0.0046546940531004425
1588,-0.016400148108497613
1589,-0.0015303332682221442
1590,-0.0020492243855884107
1591,0.0019598656789088682
1592,-0.0011333932529491303
1593,-0.005450570510718521
1594,0.0053445869327198095
1595,0.004966668508346556
1596,0.009596596496851644
1597,-0.002571598230642352
1598,0.006366011199391435
1599,0.000757314757578953
1600,-0.0010339347975067813
1601,-0.0017981906067087838
1602,0.0001770175895292169
1603,-0.005075995520592277
1604,-0.0010540771092681298
1605,0.0056760867374475495
1606,-0.01579040593689595
1607,0.00732162922382661
1608,0.022206138174958204
1609,0.007978079022267702
1610,0.005029413224843118
1611,-0.026678281127520482
1612,0.01417688760600634
1613,0.01320792530605824
1614,-0.01673942957219928
1615,0.04396541073218091
1616,0.019638319704677536
1617,-0.03862563797099722
1618,-0.0327622487577368
1619,-0.031211936703552268
1620,-0.018687653335794988
1621,-0.014897124214560502
1622,-0.0034441425253014368
1623,0.005476760216771459
1624,0.004550951701523528
1625,0.015562120792245192
1626,0.0075766052750713495
1627,0.0073289455571701485
1628,-0.0002206350089845356
1629,0.0033894275616574987
1630,0.010291527180894792
1631,0.004985412220095683
1632,0.0048798953569850305
1633,0.009926478689002921
1634,-0.001507422405219394
1635,-3.189972843844341e-05
1636,-0.01725167725461698
1637,-0.11510718636839105
1638,0.025380258648332064
1639,0.2447353062327167
1640,0.07447997854093935
1641,-0.04032978985318997
1642,-0.02831531012776034
1643,-0.03298826649995475
1644,-0.0502285912605728
1645,-0.06874088279286127
1646,-0.0399836974514461
1647,-0.0315849637214987
1648,-0.016909237463889858
1649,-0.011721023439978193
1650,0.0010044682040976846
1651,0.0011445674725108872
1652,0.009110179752533362
1653,0.01329846944518523
1654,0.014829873365421253
1655,0.015816801906758986
1656,0.01380550685933181
1657,0.012955565538973151
1658,0.013926054785745023
1659,0.009444559365932829
1660,0.011883552498436324
1661,0.0013538079920444208
1662,0.009189763954268477
1663,0.005664262397215276
1664,0.000714217547069634
1665,0.004524600019643476
1666,-0.0023767916447177736
1667,0.0004587255432763702
1668,-0.0020360516756387573
1669,-0.0024597398448968364
1670,-0.002262013087795182
1671,-0.0020399537911343184
1672,-0.005175963215853485
1673,-0.006433772233059427
1674,-0.017237700009076436
1675,-0.004272001787320196
1676,-0.004704061841870575
1677,-0.009877951447175851
1678,0.0010027640591584418
1679,0.0045669161660960595
1680,0.0006256408023391311
1681,-0.002389559358457813
1682,-0.0011180927529480245
1683,0.001729686797452298
1684,-0.003979179041419853
1685,-0.027239277979350968
1686,0.0169993965524386
1687,0.03845149172497835
1688,0.007864970175180088
1689,0.006069078175309122
1690,-0.001421102016635219
1691,-0.004182323368180934
1692,-0.01228566933167923
1693,-0.005506658949604424
1694,-0.004153101136977209
1695,-0.003375729098130536
1696,0.0029756145598319843
1697,-0.0022861471720842423
1698,-0.011765069799577123
1699,-0.001977306899895762
1700,0.010520272651579038
1701,-0.0006934746163487406
1702,0.002124471898380404
1703,0.0007303724849009353
1704,0.0045216012737553275
1705,0.003444257131068891
1706,-0.0020076682426326785
1707,0.004796506469174748
1708,-0.005124351565400758
1709,-0.0016297021383754433
1710,0.003844399179608854
1711,-0.0006872642249520691
1712,0.0032663691070204497
1713,-0.00022206806809938091
1714,0.009172223181231915
1715,-0.0008381177132951063
1716,-0.007625269673537934
1717,-0.015460594819385214
1718,-0.019726332038601017
1719,-0.0042731464013582195
1720,-0.0218548435234462
1721,-0.0022098644783231022
1722,0.1284088034173288
1723,0.08806256177497972
1724,-0.01773251594166925
1725,-0.06260942440817457
1726,-0.10563366706128069
1727,0.028615575159930073
1728,0.05282682350482334
1729,-0.018147342603718516
1730,-0.023767175651908917
1731,-0.02035063358227869
1732,-0.02775779326560899
1733,-0.018664379115261722
1734,-0.012113274523258255
1735,-0.004840311626486068
1736,0.005658701582408554
1737,0.009913808665213983
1738,0.014054544902113051
1739,0.006799843772762628
1740,0.010422593168474839
1741,0.002657284226387533
1742,0.014821929647608095
1743,0.013473434188489999
1744,0.009221799311687874
1745,0.0008969530833111208
1746,0.005551237641929224
1747,0.00787142174339686
1748,0.0016243300173042763
1749,0.0029363797061567557
1750,0.0033612882988934114
1751,-0.0032364501890830375
1752,-0.005713272998072722
1753,-0.0011887555994985798
1754,-0.0033620145735997753
1755,-0.005125817320968308
1756,-0.013070824295885857
1757,-0.014411988536770556
1758,-0.05487448439141879
1759,-0.00856877920406755
1760,0.10181182272407112
1761,0.04756558952215306
1762,0.00032187581738858315
1763,-0.00726326855284219
1764,-0.02844503764804127
1765,-0.02050220530690451
1766,-0.028487823208755834
1767,-0.025015228461415476
1768,-0.015456549636293374
1769,0.002394018789733986
1770,0.0018513581976357437
1771,0.00425126381602265
1772,-0.00034700844718725705
1773,0.0056161214106296
1774,-0.0005427840980014344
1775,0.006330986491355424
1776,0.00706239811131168
1777,0.0055916586800431895
1778,0.014882280254104837
1779,0.007994661350735026
1780,0.011634691505566331
1781,0.0005953474334648191
1782,0.0016105329042152925
1783,-0.007489563482189106
1784,0.0059563008759313755
1785,0.004716245015574215
1786,-0.0032871457673553945
1787,-0.0010113691177996691
1788,-0.0029457159189925954
1789,-0.001714404613090791
1790,-0.004844853448152629
1791,0.00047578723669909617
1792,0.0013048377697600522
1793,-0.010499568398126744
1794,-0.003984185861258283
1795,-0.00019009214054294989
1796,0.0024060767163687526
1797,3.95444925855061e-05
1798,0.0005240277211416167
1799,-0.0019394669191035475
1800,-0.0026667224990607145
1801,0.004624614171512843
1802,1.371811275976964e-05
1803,-0.004209965460749938
1804,-0.011475318176907844
1805,-0.0018409686397417406
1806,0.007563404146615308
1807,0.003136467329025755
1808,0.002010086385789608
1809,0.016815756265100838
1810,0.006267399634551166
1811,-0.0003207245777942704
1812,-0.007810416679051935
1813,-0.005706341265687455
1814,-0.001806174971490453
1815,0.001126140818681327
1816,0.000965541564377153
1817,-0.0005992756211720823
1818,-0.004505519228039453
1819,-0.0010002309238857053
1820,0.004923895055591447
1821,-0.0019699420171271033
1822,-9.811432810638739e-05
1823,-0.004209651711242962
1824,-0.006688757255220159
1825,0.0006526317436718592
1826,0.0023795314854133023
1827,-0.004291565825414753
1828,-0.001719462023430575
1829,-0.005393494498315606
1830,0.010810140024564215
1831,-0.010292114785676591
1832,-0.015124215125052567
1833,0.039250817424591626
1834,0.017529852705754474
1835,-0.010987684745657315
1836,-0.013212672408080089
1837,-0.007039460379810151
1838,-0.012252351018351839
1839,-0.07254722653757853
1840,-0.01881093701158712
1841,0.16067817955979063
1842,0.12074423494394917
1843,-0.030305121106519922
1844,-0.02831234911078377
1845,-0.03905103071040095
1846,-0.05272214900563106
1847,-0.03683558945202166
1848,0.03702454130441628
1849,-0.014377157653646912
1850,-0.032219669301390225
1851,-0.006265378754489827
1852,-0.023183977948296748
1853,0.0118230556531061
1854,-0.006742254068802783
1855,-0.0007592460475371217
1856,-0.0023488538660882147
1857,0.0035061093203170614
1858,-0.0010447540169530763
1859,0.006592781327381458
1860,0.00753770330896468
1861,0.009853480794404647
1862,0.006647254836059241
1863,0.015105036193486642
1864,0.013943516531759344
1865,0.009976097231312209
1866,-0.025111686392630016
1867,-0.06465620312955764
1868,0.013659133428031857
1869,0.027766882001813896
1870,0.20253197155903616
1871,0.11958671037276458
1872,-0.09934979454531508
1873,-0.047217968757616115
1874,-0.08630983963122768
1875,-0.018233975262879405
1876,-0.048235376571652507
1877,-0.02033187352766326
1878,-0.033697366657787255
1879,-0.008432728753670364
1880,-0.0036494671236607813
1881,-0.0066374692906082545
1882,0.01001748850930282
1883,-0.0005132516483687729
1884,0.01284536671005218
1885,0.0027380317612066413
1886,0.018620786320007188
1887,0.005603294392593468
1888,0.013011231933641183
1889,-0.009593945475370206
1890,0.01313098717881031
1891,-0.006678407026282154
1892,0.016854456379667194
1893,-0.006864993038268385
1894,0.005760314277410965
1895,0.07139490087662075
1896,0.05851621749185962
1897,-0.015675462490426353
1898,-0.02104837850135339
1899,-0.05542565842932121
1900,-0.022400963391780798
1901,-0.015908478194222937
1902,-0.003616111026219405
1903,-0.007815715819894882
1904,-0.00544204108949392
1905,0.0008967265614251308
1906,-0.010585474991938112
1907,0.0069224569435221775
1908,0.028534500381562675
1909,-0.005303040593321224
1910,-0.010540548156588706
1911,0.02456541240147696
1912,-0.009193105098075086
1913,-0.009001095446852014
1914,-0.02755480279323964
1915,0.01958456438497338
1916,0.003944205040577146
1917,0.004241441513339525
1918,-0.002721772776524559
1919,-0.005456882095169384
1920,-0.002117601089669586
1921,-0.008710813390008128
1922,-0.04055384125347978
1923,-0.02129838065271847
1924,0.12411067354014581
1925,0.0315774876378741
1926,-0.016812486955100167
1927,0.058466410995165974
1928,-0.036601315706769395
1929,-0.018167003555915665
1930,-0.036862063557724034
1931,-0.021198725861183074
1932,-0.020894572619014742
1933,-0.0059305071192389735
1934,-0.002489980993260983
1935,-0.002680956508069111
1936,-0.0029874963546515226
1937,-0.004572619464782398
1938,0.017161750356042414
1939,0.011690092965303506
1940,0.010409851067682385
1941,-0.004895109026287851
1942,0.002792985502941849
1943,-0.0030692155244488005
1944,0.0060822349300513785
1945,-0.004427136711007296
1946,0.00984125902680715
1947,0.0016510157994745634
1948,0.009917102712436827
1949,-0.0030964566620615853
1950,0.017588076606263586
1951,0.009043339455240652
1952,-0.032889790671829046
1953,0.006122019543541125
1954,0.021568211275280063
1955,-0.01034715326572736
1956,0.0029769812170124654
1957,-0.01890916355946657
1958,-0.0014494391176737061
1959,-0.010891370715667264
1960,-0.0015008441474456177
1961,-0.007009796240003753
1962,-0.0013979439343779262
1963,0.0035128406621388227
1964,-0.0020469537551809575
1965,0.006675031932835336
1966,0.0017800587308079265
1967,0.0005887700687409719
1968,-0.005571914855640693
1969,0.0032119211148965883
1970,-0.006466666123081494
1971,-0.0017977461274622693
1972,-0.061374099732238764
1973,-0.030123235855589466
1974,0.09348015974018205
1975,0.06415818935475584
1976,0.039772513784079866
1977,0.030528279868271405
1978,-0.04319745277844041
1979,-0.024836271407566085
1980,-0.041074970021600044
1981,-0.018109486594685982
1982,-0.02186734382857689
1983,-0.0005911306566234748
1984,-0.009025728597344594
1985,-0.0029744985471807945
1986,-0.0018944962309572072
1987,0.0011895395541561549
1988,0.0076725969068698816
1989,0.002807983409576737
1990,0.025746748833376104
1991,0.02362213152637765
1992,-0.003005686551962136
1993,-0.027241711094036766
1994,0.030581477945750675
1995,0.015989253098907388
1996,-0.011089871441294648
1997,-0.014820692589905586
1998,-0.014189226108536662
1999,-0.011122359666075434
2000,-0.017110504657936527
2001,-0.057421016995025
2002,-0.01748385834734198
2003,0.16867017447213695
2004,0.06208890267272958
2005,-0.025388134026463983
2006,0.016201475486172654
2007,-0.04908843258908354
2008,0.0014195185611755373
2009,-0.03174529483316298
2010,-0.01859259895808983
2011,-0.03713441969399941
2012,-0.06655281347288408
2013,0.018306048639565434
2014,0.05324569780084457
2015,-0.013083079592159427
2016,0.005283615046612481
2017,-0.018516498752728712
2018,-0.006435328599957754
2019,0.0003345792462569573
2020,0.004275484210443967
2021,0.013033655830179276
2022,0.008135245535242782
2023,0.01592891442462692
2024,0.0034148406055352146
2025,0.015892844278628845
2026,0.0017185088608910812
2027,0.015957034271392403
2028,-0.007589426620049649
2029,0.0006673149558351858
2030,0.0004891474563806135
2031,0.003553169885926995
2032,-0.0011975025971855228
2033,0.004139625620463647
2034,-0.002945282601650595
2035,0.00561531023039148
2036,-0.01359134764565557
2037,-0.005302610017488981
2038,-0.011742764089270304
2039,0.001417237462254822
2040,-0.004908779931645299
2041,-0.0050219458977443
2042,-0.00439100547957473
2043,-0.0050941432528565055
2044,0.0018548235769530828
2045,0.0020578672593262216
2046,0.006928959077380764
2047,-0.006652031826065817
2048,0.0005607079275129507
2049,0.0040752409735566875
2050,0.0014717964050437286
2051,0.004074871758292186
2052,0.010828092311062985
2053,-0.004655631654218705
2054,-0.003548692439284745
2055,0.0015808095431257803
2056,-0.0035999300950195854
2057,-0.009069835404456463
2058,0.002871567000732463
2059,0.0002693874180327849
2060,-0.0013057078421428482
2061,-0.0014376561932818045
2062,0.004210696644596595
2063,0.0066181024336159815
2064,0.016952264030799663
2065,0.0032468736402172563
2066,-0.0023900308996749114
2067,-0.0027163643410874827
2068,-0.004766325308621512
2069,-0.009711843945380737
2070,-0.006721605051616002
2071,0.0023824275003242103
2072,0.0016854599788548828
2073,0.0006889641048778601
2074,0.003393490042750219
2075,-0.007281020006971579
2076,-4.276455399904698e-05
2077,-0.00734710077212764
2078,-0.008004918539720704
2079,-0.04056389672762823
2080,-0.10000846233237398
2081,0.13125652271555188
2082,0.1592948553537787
2083,-0.011820241107946178
2084,-0.004502891371527257
2085,-0.0427257107276115
2086,-0.02490417033275551
2087,-0.039072320006098095
2088,-0.01915820277897031
2089,-0.021238713658328814
2090,-0.0064518875885082195
2091,-0.008209326385423179
2092,-0.01909499369244687
2093,-0.003612535327042199
2094,0.046487573305614524
2095,0.0647445730538545
2096,0.0006710577101947291
2097,-0.006761442511054533
2098,-0.018905304456280518
2099,-0.012359651162196334
2100,-0.00934851534790701
2101,-0.0062057080654517455
2102,-0.009895984093607245
2103,0.0012842473117741678
2104,-0.006347252081392618
2105,0.012447381985248423
2106,0.0048026194797046225
2107,0.006525959405509834
2108,0.005401864895505985
2109,0.0023770414098622794
2110,-0.003926832409655391
2111,0.0006869152722341447
2112,-0.0008508118235980629
2113,0.01083004850151615
2114,0.004362468111512613
2115,-0.0003749699518558608
2116,0.004550082143399099
2117,5.425411134901345e-05
2118,-0.005376313937760427
2119,-0.033211295566600275
2120,-0.050493587565307196
2121,0.07851093424039908
2122,0.0818055044546085
2123,-0.02082645300919131
2124,-0.013993452096404357
2125,-0.035545677285924976
2126,-0.012428402648357307
2127,-0.01933898071915813
2128,-0.005197152399942857
2129,-0.019497349072544412
2130,-0.0015806803308313216
2131,0.01581396408214012
2132,-0.0016698115011087727
2133,-0.0024250196039746425
2134,0.027297352030066658
2135,0.008860741983659408
2136,0.006503570099820687
2137,0.00022478687461955163
2138,-0.04766096474516942
2139,-0.03430586895965699
2140,0.06175628022632701
2141,0.02497157872197244
2142,-0.020946500032415542
2143,0.013469467968530168
2144,0.010779081510009926
2145,0.005336064502573756
2146,-0.02109215831610213
2147,-0.01496070245891629
2148,-0.01156366563901001
2149,0.0026842432075064853
2150,-0.010330527754858874
2151,0.003057391328280496
2152,-0.0008075724083845028
2153,0.0074230598683640795
2154,-0.0026255698844624108
2155,0.009096537959673268
2156,0.0038216938124564018
2157,0.0035716404711379317
2158,0.009283286049117991
2159,0.001657603737844706
2160,0.0061513045326477365
2161,0.00223854586312152
2162,0.012287565836760713
2163,-0.0263256833125988
2164,0.006800772314649478
2165,0.0200741789846064
2166,-0.0013626449459054925
2167,-0.0008843822661877086
2168,-0.013828052558312954
2169,-0.005813782864326343
2170,-0.006359805782751953
2171,0.003524326316722474
2172,-0.007021844866587924
2173,-0.001359681691164731
2174,-0.0035545696683009437
2175,0.0007268919668768324
2176,-0.0011921643568449034
2177,0.0013816463812117014
2178,0.011560635817612313
2179,-0.00014029253112402603
2180,-0.00875029091695849
2181,-0.013091881075596301
2182,7.282694732103218e-05
2183,-0.006401809438822294
2184,0.004882028982807086
2185,0.006870899793687777
2186,0.003528342169218426
2187,0.005659233001262296
2188,0.002276468623510386
2189,-0.007158971222262674
2190,0.00026714732213877976
2191,-0.0007777401976388609
2192,0.0036032026703311237
2193,-0.0043637207952964795
2194,-0.0015201953979165784
2195,-0.0023930523569188223
2196,-0.003529196700812285
2197,0.011060424488893722
2198,0.017504690351739148
2199,0.011663670859732937
2200,0.0036766748224402912
2201,-0.0011304365845543436
2202,-0.017258105228557554
2203,-0.0034601341742399715
2204,-0.008986005500087622
2205,-0.06475879441277513
2206,0.019626937159252324
2207,0.0744855754221763
2208,-0.028191116345890277
2209,-0.06038859777996833
2210,0.06529383549455536
2211,0.11604089555366276
2212,0.033528517855847845
2213,-0.019126586436621462
2214,-0.07542194568071137
2215,-0.0443123966207644
2216,-0.04733762590559249
2217,-0.024559112064091865
2218,-0.02474286808921127
2219,-0.007489667968268693
2220,0.005665454343357683
2221,0.006441560552445408
2222,0.014379772486435592
2223,0.012692118444481768
2224,0.015162417310785058
2225,0.005024169817771328
2226,0.019264173794908385
2227,-5.820108678254721e-05
2228,0.0013456410500551665
2229,0.0012075294935088333
2230,-0.011472719237107468
2231,-0.059185825867697286
2232,0.05953180571784552
2233,0.08673768618764709
2234,0.11192671067802701
2235,0.055255374099378994
2236,-0.08526323942339414
2237,-0.044074041324359735
2238,-0.06596985348316743
2239,-0.030075954218858572
2240,-0.028198843586017777
2241,-0.015236034610828678
2242,-0.020448903819571346
2243,-0.013497132533667792
2244,-0.008971001173651991
2245,0.0018297016822054445
2246,0.012850238604401829
2247,0.010823077504612541
2248,0.011125580234799842
2249,0.005000045384618174
2250,0.01230611331511387
2251,0.008021385087910808
2252,0.018106112468444225
2253,0.00039130953358789723
2254,0.009812448160078641
2255,0.003157594072696053
2256,0.01495680672034352
2257,-0.004256545026317724
2258,-0.0074370950537639546
2259,-0.008297691764361827
2260,0.0009221277901327353
2261,0.0015958929321988813
2262,0.003802028895188857
2263,-0.0034034423244431013
2264,-0.004560295428998365
2265,-0.0025555339366057353
2266,-0.0038562652619252135
2267,-0.0016001053127575144
2268,-0.003198363686937886
2269,-0.002890309570657443
2270,-9.880156655866796e-05
2271,-0.002962537638236881
2272,-0.0030447003442404244
2273,0.007210066377809248
2274,-0.002760846245696345
2275,0.00020984352685127043
2276,-0.00404653972397926
2277,-0.0004183761231420693
2278,0.005154933639480208
2279,0.0011868379118209448
2280,-0.00030609340923487376
2281,0.00915515722648243
2282,-0.010680494592407584
2283,-0.0006700067667053129
2284,-0.004251536400416081
2285,0.005897150486054346
2286,0.008295338088166477
2287,-0.004170185780097976
2288,0.0027634199519054846
2289,0.0074666784800630675
2290,-0.0014984635825690071
2291,-0.005912490951748889
2292,-0.0023266836564195034
2293,-0.002448305217156943
2294,-5.31277292582389e-05
2295,-0.002644831315553457
2296,0.01037613548276976
2297,0.012354544125480177
2298,0.003099114238714027
2299,-0.0027313802595802465
2300,-0.009504101230520673
2301,-3.267045045489414e-06
2302,-0.003300679421176853
2303,-0.0014630192972229575
2304,0.0003739245536040353
2305,-0.002491770036037241
2306,3.96885922257853e-06
2307,-0.011785075105743855
2308,-0.0012401222162175783
2309,-0.005117704152431986
2310,-0.005963801574612055
2311,-0.040249625926799384
2312,0.015582537802066039
2313,0.07019195910380109
2314,0.018623943004348893
2315,0.001403469477849124
2316,-0.016103038990213054
2317,-0.017435349175629465
2318,-0.013454621796452102
2319,0.025852497956446067
2320,0.015350711906113427
2321,-0.03907059426926803
2322,-0.006086518042017866
2323,0.008771442352018752
2324,-0.00997912869303568
2325,0.00022927468862207583
2326,-0.009624137182458723
2327,0.0033511969095744425
2328,0.0013001983187810318
2329,-0.007380783051157797
2330,-0.0009169823225050507
2331,0.0004159396658398283
2332,0.0007037553909801895
2333,-0.00659839465514581
2334,0.011972679799664718
2335,0.015212882362867396
2336,-0.039778964646119325
2337,-0.12131446132112021
2338,0.09470351176298655
2339,0.21611328724979628
2340,0.06502656347916662
2341,-0.01795588911975688
2342,-0.0819473516020169
2343,-0.055109565006085756
2344,-0.055823083946290736
2345,-0.03776104697203248
2346,-0.021636722176368164
2347,-0.005449217320493067
2348,-0.0013986934874233702
2349,-0.006565424080412264
2350,-0.009169628389427992
2351,-0.0035057506153444717
2352,0.040339641751669424
2353,0.03585299547592129
2354,0.014700172445538978
2355,0.0007970999389256203
2356,0.003959266010479018
2357,-0.00741529659944652
2358,-0.005648523166410832
2359,0.0040928438200717055
2360,0.0033396834165843672
2361,-0.0006357515240823387
2362,0.007546925045361403
2363,0.0008279498401931734
2364,0.001236794035182712
2365,-0.0053465279033533715
2366,-0.004064735453194208
2367,0.00629231001579426
2368,0.0017155507345826722
2369,-0.005506369646159473
2370,0.00035089183144316853
2371,-0.001634399906257144
2372,-0.0009043975341991792
2373,0.0004531145161224574
2374,-0.006380381933900152
2375,-0.004864601754940381
2376,0.001348441290550416
2377,-0.000411659236309557
2378,8.272741187687407e-05
2379,0.004232089941219634
2380,-0.0012023854584075786
2381,-0.009797320450336853
2382,-0.007168752348203624
2383,-0.009525950835223281
2384,-0.017061325587814227
2385,0.0035879626736097445
2386,0.0326640987290756
2387,0.03953825490510272
2388,0.02502029533636127
2389,-0.00046032776629226354
2390,-0.01595162611056234
2391,-0.013822471112632673
2392,-0.022097521135295034
2393,-0.015063393008342281
2394,-0.011941962928751042
2395,-0.008465695137765988
2396,-0.004462655952197875
2397,0.003472446646776598
2398,-0.0001050470235048305
2399,0.004854257782962746
2400,0.00033556979649773666
2401,0.0009189253938441111
2402,-0.0006882976012450408
2403,0.006396456979025928
2404,0.005954034075468132
2405,0.005657955230537866
2406,0.010933500045245336
2407,0.008214305685440891
2408,0.013453515901986044
2409,0.01143453420679483
2410,-2.456838905328003e-05
2411,-0.011518725223047489
2412,-0.018895767259933284
2413,-0.04187092283919507
2414,0.03968049436309325
2415,0.037537734009202704
2416,-0.012583142775103591
2417,0.0015832872451796726
2418,0.0028161198802456816
2419,0.022101357146273037
2420,-0.013918055289332303
2421,-0.018577058662461746
2422,-0.017721006418042015
2423,-0.01967203613622198
2424,-0.013528901876280128
2425,-0.007478211312743007
2426,0.004576604823599176
2427,0.0035385527209976257
2428,-0.0030698935581197247
2429,-0.0017270571377875858
2430,-0.005058476387577979
2431,-0.002929578420649743
2432,0.009703101085553995
2433,-0.0011874547750159517
2434,0.005185941727541457
2435,0.007544568380768774
2436,0.006623626997637123
2437,0.001885308495562215
2438,0.011581571531754103
2439,-0.0038397216306791243
2440,0.019581321515070818
2441,0.03548774110285842
2442,-0.040556397113806944
2443,-0.03606890192087098
2444,0.08636838035129393
2445,0.04867954419697766
2446,-0.025545511723388856
2447,-0.03349215525151887
2448,-0.04114555771379562
2449,-0.014887529987632814
2450,-0.01606653562294635
2451,-0.0037802127468643983
2452,-0.003538223046802812
2453,0.0022862661590512933
2454,-0.0012678608298479768
2455,0.0009075900299875539
2456,-0.0015745612613337684
2457,0.007533058991552542
2458,-0.001558551198112509
2459,0.0033633798708471614
2460,0.0062084104852197855
2461,-0.0018967578909285486
2462,0.000975524846564749
2463,0.007656692985313055
2464,0.006781136607906045
2465,0.001516238428719537
2466,2.2888048267897046e-05
2467,0.0052580502942320174
2468,0.007550136112850097
2469,-0.0016773700176680364
2470,-0.0031688927984848507
2471,5.498834644561412e-06
2472,0.0008202105875237831
2473,-0.002131792715861931
2474,0.0004702103767085398
2475,-0.0055154515381367055
2476,-0.003942396780175611
2477,-0.00830342711998169
2478,0.006419083654330514
2479,-0.00019146081075508553
2480,0.003243457500399347
2481,0.001613912538998681
2482,-0.001473641971509984
2483,0.002506035973925281
2484,-0.01065159327179533
2485,-0.0032073559719066596
2486,0.005196696151250178
2487,-0.00205192278858473
2488,0.0032982068675945133
2489,0.005664117635033232
2490,0.007755800462732842
2491,-0.0012269661709198077
2492,-0.006988004414557149
2493,-0.010099898384116276
2494,-0.0054747767795556325
2495,-0.0010595244269610386
2496,0.009373752488567325
2497,-0.017491164151692554
2498,0.014752583108163176
2499,0.024257535877905856
2500,-0.020534314852800332
2501,-0.009814924185894419
2502,0.02395202692763295
2503,0.012130589730198585
2504,-0.025811616377183523
2505,0.004913195641816803
2506,-0.012425811057558267
2507,0.007308050262508825
2508,-0.006279450388468527
2509,0.005073592790347121
2510,0.002567769599372549
2511,0.00465076148600789
2512,-0.004613976725593079
2513,-0.04751916045080102
2514,-0.007920334810523053
2515,0.09820280871674422
2516,0.028804501726884015
2517,-0.03340482451441641
2518,-0.005565464333626457
2519,-0.022409730664526062
2520,-0.003381471941438039
2521,-0.00711609700671597
2522,0.006841643783096154
2523,-0.04450935782373819
2524,0.006458170012734778
2525,0.04397221517456441
2526,0.016105421681222434
2527,-0.00667936025524515
2528,-0.021976682635192823
2529,-0.06338294073944616
2530,0.0079161185886897
2531,0.10764149823362996
2532,0.03095702182916503
2533,-0.018858019042388843
2534,-0.035185382111408675
2535,-0.026937104771626294
2536,-0.018127898428242122
2537,-0.008681566536617637
2538,-0.00014862388307001692
2539,0.005700790629844447
2540,0.0015191839647996433
2541,-0.008141329003998908
2542,0.003940178262507215
2543,0.0024213645036904614
2544,0.006653897189903078
2545,0.0028469424135547407
2546,-0.004062589053372796
2547,0.003914124092156097
2548,0.0028273401715366853
2549,0.00593249210357606
2550,0.007985897080266138
2551,0.00539192837337946
2552,0.011221497178070335
2553,-0.005729140542349938
2554,0.0024533768123574514
2555,-0.0011448294777805183
2556,-0.01425539019157709
2557,-0.00612652648491626
2558,-0.010621123887053777
2559,-0.002442253511791042
2560,1.5230753811747155e-05
2561,0.0019697519993016506
2562,0.034565078306409924
2563,0.03623926620897917
2564,-0.0037828415714884736
2565,-0.01919285856987358
2566,-0.014767055541248832
2567,0.020008845676788945
2568,0.009544544749970223
2569,-0.025676356567157773
2570,-0.04247161006644545
2571,-0.012460850048635785
2572,-0.024769532550719446
2573,-0.03440940609168628
2574,0.09619189753614577
2575,0.04445816661480606
2576,-0.031765823259658904
2577,-0.014444927716962656
2578,-0.025646920797315582
2579,-0.003951168682631125
2580,-0.00937982041787431
2581,0.0022796196905672562
2582,-0.001582242400828434
2583,0.00560554615056183
2584,0.009850671887396259
2585,0.006002747889487757
2586,0.0008025117243920243
2587,0.010725921812965758
2588,0.0004857088608276605
2589,0.004720673550155551
2590,0.01202813757235997
2591,0.015275299177163876
2592,-0.008200351541019111
2593,-0.005978233117947211
2594,0.018304482922614374
2595,-0.005240346662821757
2596,-0.01018645818793093
2597,-0.011656543013148063
2598,0.014049966859430408
2599,0.00025980777798582586
2600,0.002128316561039258
2601,-0.0007292442010804899
2602,-0.016061569575841428
2603,-0.024499648883138825
2604,0.0069825831912548805
2605,-0.004267522043553091
2606,0.013919922447962908
2607,0.012525116864062436
2608,-0.018590270670854656
2609,0.0014269485321905754
2610,-0.015445048715919063
2611,0.005642698647302076
2612,0.0019821736664555906
2613,0.01050682153239145
2614,-0.001501501425390902
2615,0.0069079781971894145
2616,-0.0006654798830134645
2617,0.003670985632289676
2618,0.004494394442743347
2619,-0.01301471690315826
2620,-0.007728232594907356
2621,-0.006850858854663527
2622,0.001522870766251988
2623,-0.007468937935524715
2624,0.006933019803866626
2625,-0.004381678449895374
2626,0.009111375806572878
2627,0.013645825575073045
2628,0.007219466157899703
2629,-8.099840576208765e-05
2630,0.003467154655904272
2631,-0.00459607749201176
2632,-0.005504084197378084
2633,0.003802674468061552
2634,0.0036251829467347993
2635,-0.00011709352095170752
2636,0.005170837544052063
2637,0.010972424730485032
2638,-0.010224433113545067
2639,-0.00019842834102607506
2640,-0.00026404329975916567
2641,1.8494779274073198e-05
2642,-0.007040843720158413
2643,-0.013069743022101225
2644,0.0009713373198635532
2645,0.00010817295036807777
2646,-0.005038424253591927
2647,-0.003932180390753886
2648,-0.03123378383228203
2649,-0.04421584759067183
2650,0.08835895257429022
2651,0.070714435223331
2652,-0.035754472225715594
2653,-0.008852809914694854
2654,-0.026506419085343985
2655,0.0008839766586447428
2656,-0.009181452210549971
2657,-0.04668799003582707
2658,-0.013458138937468455
2659,0.08154777753616588
2660,0.03257562554423808
2661,-0.01312827842037289
2662,-0.011907713093766457
2663,-0.008525369411734988
2664,-0.0003385971585410912
2665,-0.01524790315494702
2666,-0.004463709840189489
2667,-0.006846104966108867
2668,0.005892463487876391
2669,-0.006893546210294048
2670,0.008668537387401793
2671,-0.006147710687177221
2672,0.0002799717346139499
2673,0.0005993215171601948
2674,0.011820202984991514
2675,0.005178083024423859
2676,0.003799609297599045
2677,-0.0020721467195343006
2678,0.0017360989372907937
2679,-0.000719562428149979
2680,-0.004420365495390807
2681,-0.0037311376605742644
2682,-0.008776591928195897
2683,-0.0035298986983882674
2684,-0.00012531056410188326
2685,-0.0071667773285001395
2686,0.007314744990689039
2687,0.05288146018983959
2688,0.02811235364607624
2689,-0.0019049685272878561
2690,-0.018783267916727853
2691,-0.040033908697282364
2692,-0.031227044697290967
2693,-0.007170753976679104
2694,-0.04667353172875617
2695,0.0863656872883597
2696,0.0979554299678253
2697,-0.03167214577777636
2698,-0.027096270623205583
2699,-0.04689316347958564
2700,-0.017011258641314794
2701,-0.019590336689686558
2702,-0.002870130260247016
2703,-0.004885220538079915
2704,-0.011057286559665236
2705,-0.0011297976618154636
2706,0.005773410126006687
2707,0.010346455562778531
2708,0.010855256761468363
2709,0.005872996199370723
2710,0.0077655871467937395
2711,0.008078411376852598
2712,-0.0019322462727861846
2713,0.01377861302613388
2714,-0.00042802228872419745
2715,0.010110920411429353
2716,0.00685762735652083
2717,0.00799536891141791
2718,0.017587782788186145
2719,0.007901391481200339
2720,-0.026567605383699257
2721,-0.03780374881551611
2722,-0.015045140078914533
2723,0.02503125998943158
2724,0.04481774833027528
2725,0.04119169404663287
2726,-0.005070604766709256
2727,-0.0289144356505164
2728,-0.029854029094799096
2729,-0.028202896219755434
2730,-0.018362089696676347
2731,-0.007393837864773347
2732,-0.005463037647238218
2733,-0.002674541635656785
2734,-0.0018464879254827433
2735,-0.0037831884841712845
2736,0.0017592010668952343
2737,0.005968435217234539
2738,0.01271593529971595
2739,-0.0018834503242446364
2740,0.008567822685389337
2741,0.00857778995841107
2742,0.009250664096545595
2743,0.007681172171349908
2744,0.001216844727923709
2745,0.00184797219006432
2746,0.004075628341008226
2747,0.007078555544811707
2748,0.010671088846706525
2749,0.00021480821184182396
2750,-0.006152903159730562
2751,-0.007223850794867084
2752,-0.002023027686853281
2753,-0.005891975422876161
2754,-0.0021423482468871623
2755,-0.002240399780934833
2756,-0.0022991117290764845
2757,-0.006896924084165587
2758,0.0051163041475146345
2759,0.0002499652472880004
2760,-0.006301883898227152
2761,-0.006485552180184088
2762,-0.016997343809995815
2763,-0.05383679924727628
2764,-0.017469561855106747
2765,0.07008146369871965
2766,0.0773923418383488
2767,0.014120979789692338
2768,0.006790365450745035
2769,0.0045686238759217665
2770,-0.04689284332784967
2771,-0.023718472652523564
2772,-0.007519711431174903
2773,0.013658238844215815
2774,-0.025897362435406204
2775,-0.00397776832260321
2776,0.0002185862168719785
2777,0.004548050679911902
2778,-0.00044229119043326034
2779,-0.009890367228458525
2780,-0.0030402374969811623
2781,-0.001210994996002494
2782,0.010349380656896312
2783,0.009187021483625067
2784,0.0037994938391203194
2785,-0.0026620610426853
2786,0.0036618203770483124
2787,-0.0059076852491863185
2788,0.004116690090616649
2789,0.00021181083837438705
2790,0.0061291311859696315
2791,-0.0015327002022448803
2792,0.031322593916077876
2793,0.02392596735058826
2794,-0.007673999658030796
2795,-0.06925862384357984
2796,-0.024146838595004518
2797,0.09265586613544766
2798,0.036567021116508794
2799,-0.022661590035862
2800,-0.018951405979957224
2801,-0.05750106391293045
2802,-0.01214391188209055
2803,0.036689275242390296
2804,0.008409119194340597
2805,-0.014619310939999464
2806,-0.013400985904155812
2807,-0.010787317542221665
2808,0.0076662897831492605
2809,0.012133829809068629
2810,-0.0076334176600454315
2811,0.0005418365158453339
2812,-0.001982861962086864
2813,-0.0006097687527664344
2814,-0.0008128823508485525
2815,0.0016224156765420623
2816,-0.0022779321971982524
2817,0.00315489450830256
2818,0.001978252121357601
2819,0.003487500625150892
2820,0.001590665985706237
2821,0.005566218464487318
2822,0.0009047289153574726
2823,0.0035073847560652543
2824,-0.0018274039302612222
2825,-0.0023814818147425334
2826,-0.002311801922411146
2827,0.0020204471257456794
2828,0.004411006586245887
2829,0.0031972672790212316
2830,4.9022872564695105e-05
2831,-0.0012323953251637456
2832,0.002653693927743008
2833,0.005212477205346682
2834,0.007170056549704517
2835,0.0018434876754503718
2836,-0.005701009405444794
2837,-0.013308802686419098
2838,-0.003179892524003927
2839,-0.003113729216017296
2840,0.0003274667302097349
2841,-0.0023712837879417154
2842,-0.00692213247354557
2843,-0.005277821894323891
2844,0.0025931681511056643
2845,-0.003927149948772446
2846,-0.003887202160073629
2847,0.0007456891055384225
2848,0.007284657776162355
2849,0.01595409849554256
2850,0.014632762455605299
2851,0.0015659685990121273
2852,-0.006338069606500564
2853,0.0020838676777805345
2854,-0.0026794824203562996
2855,-0.00970209199325989
2856,-0.004016390215214702
2857,-0.002456552728307561
2858,-0.006544592221712525
2859,-0.004569194868128543
2860,0.0006855554336724305
2861,0.004096591836567522
2862,0.003795710184146069
2863,0.005373856694610315
2864,-0.004435594275211776
2865,0.0014341267931645627
2866,0.0061277993842549314
2867,0.0028846596651659877
2868,0.005649088451685725
2869,-0.0017868066749992667
2870,0.00687018164575021
2871,0.008993631069545172
2872,-0.004258549710867208
2873,-0.011654101910044566
2874,-0.016724594201435367
2875,-0.013991987526864888
2876,0.021423314452447884
2877,0.013482255278462647
2878,-0.00627928675030567
2879,-0.00490022277911706
2880,-0.011161413314976186
2881,-0.0009901193145564324
2882,-0.0005062211942692772
2883,0.0075312612080348645
2884,0.004160365015555925
2885,-0.0011879127180733032
2886,-0.0093617797361027
2887,-0.0174147026890088
2888,-0.0614699165931942
2889,0.06779721780386201
2890,0.07649108705804099
2891,-0.01725835917906288
2892,0.01589905532084083
2893,-0.012584024296423671
2894,-0.003858916676929899
2895,-0.02613711966480156
2896,-0.011673412362550647
2897,-0.01656036345715495
2898,0.006818865552947133
2899,-0.003353093981283045
2900,0.0006804862410449385
2901,-0.00437273860055103
2902,-0.006706929496244674
2903,-0.002521732715340251
2904,0.0022795259642181057
2905,-0.0006844536889634469
2906,0.01327434489587138
2907,0.03157393922033198
2908,-0.0030329440624391325
2909,0.0006752789879228907
2910,-0.01178354917673919
2911,0.004320606255115772
2912,-0.005967294580018158
2913,0.0030530723616656354
2914,-0.006901295349775117
2915,0.002212870738142461
2916,-0.006296128737297952
2917,-0.0028704631828839894
2918,0.0024461960712237225
2919,0.0012357903091585066
2920,-0.00045432630265661994
2921,0.0009655066280831858
2922,-0.003842661654286598
2923,-0.0034681854329388848
2924,0.011670284978873638
2925,0.009169279747345375
2926,0.0027520261784899896
2927,0.0003337236497219084
2928,-0.006324081356844516
2929,-0.017209999431102768
2930,0.001184150920928417
2931,-0.007666701949219772
2932,0.00036692638605833813
2933,0.023442584370526237
2934,0.01063828039640111
2935,-0.056335978416021296
2936,-0.061568352637948964
2937,0.097699234314988
2938,0.13020354236760415
2939,0.005895609088575796
2940,-0.046514106518413055
2941,-0.05150583037006905
2942,-0.03461560605579869
2943,-0.021974668690075472
2944,-0.010308217490946913
2945,-0.017920124437933366
2946,-0.01319926106613424
2947,0.00027743636230281
2948,0.010450941375277219
2949,0.006549921508405181
2950,0.012018780243337109
2951,0.006832324106045824
2952,0.006823501306342286
2953,-2.427636328628663e-05
2954,0.010852873648244853
2955,0.012345731980981533
2956,0.007604151280956797
2957,0.005239994430288232
2958,-0.0022012508654969485
2959,0.00822331186923633
2960,-0.0032476309749731582
2961,-0.0030097643353052036
2962,-0.005170892817842251
2963,0.0032779070618630737
2964,-0.008382057363016029
2965,0.0016490047143994466
2966,0.00027339216156266853
2967,-0.0025070104915277253
2968,-0.002007907767989297
2969,-0.006421148272132252
2970,0.004469111077341917
2971,0.009982983952913017
2972,0.007545821832482973
2973,0.0040976951581575905
2974,-0.006140634487305896
2975,-0.010411946545071653
2976,-0.02888675642004747
2977,-0.03795174443068866
2978,0.027481157335040467
2979,0.04341069933506077
2980,0.02394622826394826
2981,0.003005700284210409
2982,-0.009925102836043217
2983,-0.011469735502637673
2984,-0.04240162472780013
2985,-0.01518610461137334
2986,0.015468479125605256
2987,-0.022357582296886017
2988,-0.04813223088370863
2989,-0.005291900162672648
2990,0.10564333617805945
2991,0.07489709014874657
2992,0.0020303044878788954
2993,0.00966942169939242
2994,-0.005935437278235516
2995,-0.025744800515756824
2996,-0.039332540330149796
2997,-0.014049335694587576
2998,-0.03205808943460968
2999,-0.018527389999244318
3000,-0.010005224122180625
3001,-0.008613021994758056
3002,0.0017467658630621052
3003,0.005095619973445887
3004,0.012518834009333037
3005,0.006612687478927926
3006,0.014551325881831055
3007,0.0019245302002460565
3008,0.012023834581110194
3009,0.013039646154749465
3010,0.007922297157470103
3011,0.0006240430419432071
3012,0.005226122250164082
3013,0.005430358118983821
3014,-0.002345870566413751
3015,-0.00412498843729363
3016,0.0014126725336592073
3017,0.00025245583246720667
3018,0.006792533084567214
3019,0.003548967518057866
3020,0.00040208280269067326
3021,-0.0002444221659199698
3022,-0.003579856259800637
3023,-0.0024206203783295284
3024,-0.010139154687205906
3025,-0.0006014264208799606
3026,-0.0011864787637824326
3027,-0.005091530961260544
3028,-0.0033625026160263435
3029,-0.0042906011671277325
3030,-0.008575472529634283
3031,-0.004804913490178831
3032,-0.007190203125881614
3033,0.005234426206694017
3034,0.005411546074752926
3035,-0.002734552752420646
3036,-0.0064156391595873875
3037,-0.0049327289430138276
3038,-0.0012863409267782327
3039,0.004140585884559773
3040,-0.0030397176548321997
3041,0.00426564255253219
3042,0.0017063281791910162
3043,0.003758693908798764
3044,0.006646891019036316
3045,0.0070804385177308206
3046,0.010205195413098717
3047,3.233246017600097e-05
3048,0.006273279744632021
3049,-0.006042436165249207
3050,0.0015665525187952747
3051,0.0032025865752758212
3052,0.0070522726475307955
3053,-0.0027794584969719777
3054,-0.004926110885821039
3055,-0.0024562254442288293
3056,-0.003576876907347242
3057,0.00022572325713562155
3058,-0.002762602748140183
3059,-0.005320367615323257
3060,0.0007618283478551917
3061,-0.0029175028651263514
3062,2.4849349548378488e-05
3063,0.0034012407220011176
3064,0.0012494891033741264
3065,-0.0031317740241439867
3066,-0.004731741768592235
3067,-0.0006106958973164482
3068,0.00422246291604064
3069,-0.0020047678132656295
3070,-0.0009461054215791779
3071,0.002756891921265313
3072,-0.0038098788082055234
3073,0.005261804737493372
3074,-0.0027425936538217456
3075,-0.0008787326649229935
3076,-0.003525450473124638
3077,-0.0033007507561310465
3078,0.0017354587061381571
3079,0.0050368740846081315
3080,0.0013174495882357917
3081,0.006252856781518533
3082,0.0006285903564228253
3083,0.005799518484687577
3084,0.002149455404035789
3085,-0.0025989012863990024
3086,-0.008199280109054324
3087,0.0012086619163606243
3088,0.003631699085913218
3089,0.0018033667126148931
3090,0.0020264633544404605
3091,-0.0053146486813791345
3092,-0.002957355685007282
3093,-0.0010020821337372102
3094,0.003962115849225576
3095,-0.001736092179393885
3096,0.00011953563026822177
3097,-0.0017767259790518212
3098,0.0005581209495269489
3099,-0.0016813211426205494
3100,0.0007881029160509406
3101,-0.008208055279134551
3102,-0.00284699685312903
3103,0.003988828792281747
3104,0.008639355327238838
3105,0.00388082516206756
3106,0.0035931830309014826
3107,-0.003574339984541588
3108,-0.003664693672389304
3109,-0.001611531935078835
3110,-0.002330908857565565
3111,0.0042300257740122225
3112,-0.004161063763939975
3113,-9.046334221485958e-06
3114,0.0048580953164041075
3115,-0.002857077559417045
3116,-0.0025279416228532626
3117,0.005798747340920988
3118,0.0001323746351861669
3119,-0.00685129565255763
3120,-0.0020700992988252134
3121,-0.000361979886432438
3122,0.0036403174046560766
3123,0.002572420878367043
3124,-0.007951797240192121
3125,-0.004178997627404139
3126,0.0019403781184987399
3127,0.004107487041089281
3128,-0.005166654558297092
3129,0.006213990159459374
3130,0.014521972390560536
3131,0.006619303839177284
3132,0.0054946675576207984
3133,0.0010117933199728073
3134,-0.002461001455895521
3135,-0.010923255809725507
3136,-0.009770428732384253
3137,-0.0008126266927621587
3138,0.0010565069232559366
3139,0.0035859683846748295
3140,-0.007813376512828546
3141,-0.003037837509687207
3142,-0.003505847903231052
3143,-0.005778326069683189
3144,0.0022642650456858107
3145,0.0027040618451463164
3146,-0.0022174412441171194
3147,0.0026199483077160232
3148,0.0052540350227562056
3149,0.0016749440686035788
3150,0.006079684237545251
3151,-0.0015907674739071374
3152,-0.0031524662617481714
3153,0.009046262114095361
3154,0.012052002119063144
3155,0.006525668637051346
3156,-0.0010540317119735639
3157,-0.015903649293625144
3158,-0.0012506711138047253
3159,-0.006518131892982625
3160,-0.001610056297118436
3161,0.0016011004282106955
3162,-0.008956187055727398
3163,-0.004873904196680941
3164,-0.003567519515389514
3165,0.004280844157387503
3166,-0.002911343323112034
3167,-0.0048371271171756425
3168,0.0036887513418918556
3169,0.0050086422902421365
3170,0.0015258598619898762
3171,0.01403972066851764
3172,0.0060241586372485265
3173,0.0020748091996894043
3174,0.0010297313757627845
3175,-0.004213024918967655
3176,0.0010818420827361768
3177,-0.002382232500617384
3178,-0.003678253214052284
3179,0.0037384009232748587
3180,0.0029803022904626095
3181,0.0008660446828283788
3182,0.005682600750935362
3183,0.009667109511548084
3184,0.009026133298196138
3185,-0.004890166366271358
3186,-0.0064645955100223005
3187,-0.0042598301160908635
3188,-0.013670418674008766
3189,-0.016279977327535285
3190,-0.0069289181651966455
3191,-0.008242714021397677
3192,-0.0021730864802132575
3193,-0.00475539505792082
3194,0.0011884614345851734
3195,0.005094332302940669
3196,0.009237778409415757
3197,-0.004547397758597907
3198,-0.005075668565848561
3199,0.004648251691673284
3200,0.0042944791027131266
3201,0.010764304320468742
3202,0.001013798016123885
3203,0.005879456842530103
3204,0.006196338626941442
3205,0.011057386097271655
3206,3.219620413891407e-05
3207,-0.0038706232558678756
3208,0.004507446334403259
3209,0.0021053244692654065
3210,-0.0016516727708921312
3211,-0.006517330043233568
3212,-0.006263792026011784
3213,0.004140305588881581
3214,0.00044524590185206214
3215,0.007983044992200292
3216,-0.0017730753258688864
3217,-0.005336939838636604
3218,-0.008629273075214213
3219,-0.003920013750881225
3220,0.0030107298114427535
3221,-0.0014144487234470536
3222,-0.0008046349622194051
3223,-0.008901547823010322
3224,0.005152282215787559
3225,0.008510822597242031
3226,-0.0009501411255067524
3227,-0.006620346506828232
3228,-0.0004123830823819733
3229,-0.004064236387060961
3230,-0.004428347377867559
3231,-0.0015084274295786328
3232,0.0080205280281055
3233,0.001386460682765725
3234,-0.0030334298301394596
3235,0.001307422146673622
3236,0.0010838314663408292
3237,-0.0012935546049425081
3238,0.0032796474786502307
3239,0.002049043033476368
3240,-0.0009364660771687128
3241,-0.0029435650131793972
3242,0.0043510648708075415
3243,0.0037639611552902404
3244,-0.0034061608111586334
3245,-0.0018126681753872671
3246,-0.0017940344637398442
3247,0.007157594396359468
3248,-0.0015621628800145133
3249,0.0014790434805561307
3250,-0.0009555082313806341
3251,0.0028677034653403558
3252,0.0037422296908287177
3253,0.0024089743647537822
3254,-0.006080191139269253
3255,-0.00440500003651562
3256,-0.00034563017157623194
3257,-0.002994504854627187
3258,0.00044753903789258344
3259,-0.001899248374558113
3260,-0.0013214660773343458
3261,-0.0008198859426911415
3262,0.004941968846676786
3263,-0.0029185133641460373
3264,0.003072923154915438
3265,-0.001147902386248392
3266,0.0016032426629682146
3267,0.004545751029349584
3268,-2.8513680841317328e-05
3269,-0.0067835679481454535
3270,-0.006663990365605594
3271,0.005430019001358723
3272,0.0015839512600937331
3273,0.0034315223036077494
3274,0.0009016009436498204
3275,0.0018792955949279468
3276,0.00038623434685525725
3277,-0.0015167063784597822
3278,-0.0019582835221966938
3279,0.0039782890992125005
3280,0.0034156443305690034
3281,0.0008628866474875846
3282,0.0009603472659047299
3283,-0.003276572289213934
3284,-0.002486283199401359
3285,-0.006907834695857081
3286,-0.0033002924968920013
3287,-0.0005308187732756802
3288,-0.0033706707261333835
3289,0.0008252992699708094
3290,0.001788971307709622
3291,0.0034288976186572714
3292,0.003922295741452794
3293,0.001642963359507265
3294,-0.00010941255131536112
3295,-0.0015584086096182264
3296,0.002688858812556979
3297,0.0012974394528796635
3298,0.007801167826886009
3299,0.00389216129995014
3300,-0.0029567411237505226
3301,-0.0040644151414529935
3302,-0.0052629551334653635
3303,-0.007122600295596673
3304,-0.00288636156183863
3305,-0.0005874228810839183
3306,0.0007220008102540344
3307,0.00045485358528115846
3308,-0.0021260744349082027
3309,0.003634722040877369
3310,-0.0011769549348094209
3311,0.004757520404164018
3312,-0.00294369512247393
3313,-0.0019331178030317694
3314,-0.00039630582463212605
3315,0.0018114103709622378
3316,0.005364128602056095
3317,0.0005464694275501454
3318,0.0029358409942871044
3319,0.0019913163085264283
3320,0.0009909998938718023
3321,-8.16548962745238e-06
3322,-0.00017724831382128544
3323,-0.0011550185570880812
3324,-0.005251556221101711
3325,-0.0033960928411407767
3326,0.002431047953128823
3327,-0.004524508824063646
3328,0.0016644685973322467
3329,0.00022437364228738814
3330,-0.0014825629072474714
3331,-0.0015786031177351494
3332,-0.002507693107904876
3333,0.0026984993310456527
3334,-0.0005312245609558185
3335,-1.5043845351673385e-05
3336,0.003149319961520451
3337,0.0007168506851048667
3338,0.002242629373277738
3339,-0.0034537972713037848
3340,-0.00034727274210557234
3341,0.0022014498484617916
3342,-0.0019099221549866482
3343,0.005016120298590056
3344,0.006290405160208332
3345,0.007027872024690461
3346,-0.0026268667445021703
3347,0.0004324485170600998
3348,0.00022821757412421276
3349,0.001031824158813993
3350,0.003431588137091852
3351,-0.0019496283628767591
3352,-0.004743276087202198
3353,-0.005126620515917456
3354,-0.0011265276681026908
3355,-0.0040347077898834635
3356,-0.0014537966874972035
3357,-0.0006144475774148414
3358,-0.0061189796867956205
3359,-0.005000486858030918
3360,8.066952863580723e-06
3361,-0.0019492881926312013
3362,-0.003472544725135581
3363,0.0028933703177858577
3364,-7.059255769161984e-05
3365,0.009483403349924382
3366,0.007931545974099292
3367,-0.0031292276159045652
3368,0.004823754449573208
3369,-0.004410485606743472
3370,0.0005382546251018906
3371,0.0004979480959636916
3372,0.002511209288881471
3373,0.00267596183446993
3374,0.0004311661122789025
3375,0.0033540036670823793
3376,-0.007827571739136872
3377,-0.0028628580438737053
3378,-0.001113547908303647
3379,-0.003494249878441695
3380,0.009450616469271204
3381,0.004780493481186356
3382,-0.005757978712333521
3383,-0.0020888001067586297
3384,-0.005136480392307125
3385,-0.004844114241570262
3386,0.0011010145366297484
3387,0.0012121292639970353
3388,0.0038164195221602575
3389,0.00837992321771519
3390,0.0014819404024201642
3391,-0.005207671656463528
3392,0.0032817087995931048
3393,0.006648920397527077
3394,-0.004326835387604738
3395,-0.0016368761673592296
3396,-0.004709356968446939
3397,0.0014123079834669778
3398,0.006872270188306959
3399,-0.0007609807085143319
3400,-0.0020785112364340276
3401,-0.0013392337855847375
3402,0.0005110213966101921
3403,-0.004018366691505427
3404,-0.0003423633521825566
3405,-0.006914855793851431
3406,-0.011458193789362118
3407,0.005515578847769972
3408,0.004562171154859218
3409,0.0030867995652610874
3410,-0.0015400756747356598
3411,-0.009307436222812231
3412,0.0061969107284945545
3413,0.003732451160681438
3414,0.0015519807714067056
3415,0.0032651723419603734
3416,0.0012201210582944832
3417,-0.0018965044877306478
3418,0.0035304752405929986
3419,0.009177445328611832
3420,0.0073283505163804444
3421,-0.0011933425618875764
3422,-0.005357796583323916
3423,0.00352908909718027
3424,-0.004877457700450422
3425,-0.0016425007597018716
3426,0.005190908274951394
3427,0.01278813157025616
3428,-0.0017605812648278268
3429,-0.0028686994349643026
3430,-0.0045985351396232825
3431,-0.012868274309893638
3432,-0.0067610215670709985
3433,-0.015600750764951293
3434,-0.01249986021278244
3435,-0.006312720977730687
3436,-0.010502661928694892
3437,0.0006549871063204239
3438,0.006556935428444601
3439,-0.0029293843685107256
3440,0.002049701874772464
3441,0.012915855007151799
3442,0.017129040089954053
3443,0.0131631714622959
3444,0.003599436022640356
3445,-0.0016343899974697474
3446,0.00868522208497906
3447,0.0018640433685351218
3448,0.004841496928412693
3449,0.0030597836171902693
3450,0.0037334331710292875
3451,-0.0019125900321910264
3452,-0.006698939759522299
3453,-0.0035590085163245376
3454,0.00026565256417672954
3455,0.0044688000709503205
3456,-0.004302413541913575
3457,-0.005773591214756313
3458,-0.003178506135840942
3459,0.0011805846942432568
3460,-0.007355141387907015
3461,-0.001935483433993494
3462,0.0009877098121284095
3463,0.0029462691568790875
3464,0.0021865864809563363
3465,-0.002279999627812254
3466,0.0026522902735619854
3467,-0.00037124024467943394
3468,-0.00014893395185272204
3469,0.0005589371258542114
3470,0.00037958857645304777
3471,-0.006121016820457735
3472,-0.0057237540731312365
3473,-0.001053261421873699
3474,-0.005761327185916098
3475,-0.0068975170566958404
3476,-0.006056584819569241
3477,-0.001020116627005501
3478,0.006434519280884822
3479,0.01068574549472157
3480,0.004089385520699566
3481,0.003695346504757828
3482,0.004954762806120987
3483,-0.000576567013294834
3484,-0.004096539653749806
3485,-0.006270100972434883
3486,0.001961752033019038
3487,0.005311984960345311
3488,0.006143006138884724
3489,-0.0015056441154215096
3490,-0.0013784921729101413
3491,0.00719326953628845
3492,0.0009334747915827092
3493,-0.0035029568355663294
3494,-0.008685793231944518
3495,0.00398312096626471
3496,0.0032021190843520737
3497,0.003824652612825271
3498,0.0015701102208075888
3499,-0.010645867131054676
3500,0.00850404346833385
3501,0.01001053283975357
3502,-0.0005257080565125964
3503,-0.0016165927259052977
3504,-0.009156610362771562
3505,-0.004329351280971033
3506,-0.0027425360369375627
3507,-0.0031405111298265865
3508,-0.00577439098370309
3509,-0.008311762058354752
3510,0.0036875008122623336
3511,0.00807613661435181
3512,0.004420008148085705
3513,-0.0033463130032799354
3514,0.002689744183867795
3515,0.00060684161785164
3516,-0.0011091158303250005
3517,0.0005577674843988533
3518,0.00168275875459894
3519,-0.004223412092056631
3520,0.0010129379612700534
3521,0.007757872711958178
3522,0.010582752653504522
3523,0.006655112475001221
3524,-0.00527330247725686
3525,-0.005549265031578418
3526,-0.007280321518540475
3527,-0.003704515733457209
3528,-0.0004634557675672426
3529,0.0018726894312729651
3530,-0.011048438480267526
3531,-0.012495449476017897
3532,-0.012647100733246177
3533,-0.002660548623614178
3534,0.007213799337846527
3535,0.006569778612351725
3536,0.002401189563330141
3537,0.008667903268545734
3538,0.015528788065948547
3539,0.007052677112893221
3540,0.0013183710465921334
3541,-0.007744431360649206
3542,0.0020394410979226434
3543,0.006365136972972415
3544,-0.003640443547897656
3545,0.001411967873492714
3546,0.0032713719175305103
3547,0.0024281140804172305
3548,0.003463677860480484
3549,-0.0003362481168090823
3550,-0.004018931569278772
3551,-0.010472222628687765
3552,0.0005043363872680139
3553,0.003801905682727681
3554,-0.0008469485298383313
3555,-0.0011375833168943486
3556,0.003169716751407762
3557,-0.004025817127238597
3558,-0.0021137426314868897
3559,0.002207318434999602
3560,-0.005144262399575748
3561,0.0006970636786782416
3562,-0.003658009123012963
3563,-0.00242158342654971
3564,0.00021191057123743674
3565,0.002945848521377137
3566,0.0016367224708030755
3567,-0.0018849877601783095
3568,0.00013858978228373925
3569,-0.0016819773808961092
3570,-0.005057147480207747
3571,-0.007414282512486719
3572,0.0008963744215212191
3573,-1.397486840389213e-05
3574,-0.005358241858020894
3575,0.004774897795099849
3576,0.012666861451977486
3577,0.005035619075920211
3578,-0.0009310668928619384
3579,0.0007315151527953791
3580,0.0017181352191085776
3581,-0.0017238411934993227
3582,-0.0038036139716305746
3583,0.0069130460840742605
3584,0.002282194808784237
3585,0.00493192773927439
3586,-0.002102875041844327
3587,-0.0036079714089065794
3588,-0.0011223338198434619
3589,-0.005241002779740162
3590,-0.011312318967820657
3591,-0.0017766893094138588
3592,0.012818403404917373
3593,0.002802874365956661
3594,0.0020763373917443186
3595,-0.008472032825502091
3596,-0.00024173780125053522
3597,0.00337216243012246
3598,0.0046077633325918126
3599,-0.0007933474827681967
3600,-0.0003454386729849577
3601,-0.002401509679120794
3602,-0.0003914259991195674
3603,0.006301935022506103
3604,-0.001302873553669019
3605,0.0005951162346315379
3606,-0.0036624577652470775
3607,-0.008826411285467803
3608,0.001250358405865886
3609,0.005825834600321763
3610,0.00011172007897671324
3611,0.0032206219600089143
3612,0.0016867741200720428
3613,0.0011362422834520058
3614,-0.002424651178854451
3615,0.004604397922421227
3616,-0.0024008431499614145
3617,0.0008800888743208252
3618,-0.0019663856245718692
3619,-0.0036066910609593174
3620,-0.001047045006932536
3621,-0.0076664725871644105
3622,-0.001961898692156256
3623,-0.0014158522341932798
3624,0.00013807623067180023
3625,-0.002493834638471238
3626,0.003914911043978354
3627,-0.0004637513285143946
3628,0.005294537065220033
3629,0.002807531985539109
3630,0.0003507209248178097
3631,0.006624393454452167
3632,-0.002730515199792359
3633,-0.0013050487074226643
3634,-0.0010427098521049553
3635,-0.00279443774556995
3636,0.0002566489055450486
3637,-0.005278862336539311
3638,0.0036389729358868375
3639,0.0032587040274130816
3640,0.004092210216637582
3641,0.0023484088776527436
3642,-0.001087180063934632
3643,0.004116387248329934
3644,-0.0017479392271994602
3645,-0.00018237776119745842
3646,-0.0039975433214857435
3647,0.00467718327636699
3648,-0.0006046035635944146
3649,-0.000845990437918177
3650,-0.000877572363861736
3651,0.000865947410552406
3652,0.0010948629994854912
3653,-0.003392428038877386
3654,-0.004600060275432852
3655,-0.0045583856646248325
3656,-0.0018079708562467461
3657,0.0023225767179161725
3658,0.006259049734711611
3659,0.002260728906994777
3660,-0.006677510479749633
3661,-0.008430002439726008
3662,0.0027445466824465806
3663,0.00068183160188761
3664,-0.00011903939284627942
3665,0.0009420323405762623
3666,0.0031508084705859397
3667,0.0029787709534784476
3668,0.006328295631276944
3669,-0.0037444760227891005
3670,-0.0016747524026296291
3671,-0.0035846525307073832
3672,-0.00519009007979588
3673,6.726229756675271e-05
3674,0.0029029933905289924
3675,0.008313083706527575
3676,-0.0011364352053024277
3677,0.00683618983246504
3678,0.0034923070731129567
3679,-0.002446439560088302
3680,0.0033743831206941707
3681,-0.0003343614451154558
3682,-0.0044363491699459506
3683,-0.010080894864381646
3684,-0.0044110875194530545
3685,0.0005848495397533515
3686,0.0002759048617646965
3687,0.0034045710645817205
3688,0.006767683970551148
3689,0.005782898556568058
3690,0.0014463960625476441
3691,-0.00974814743814277
3692,-0.01605233774596378
3693,0.0018618751644613064
3694,-9.95732291094592e-06
3695,0.002167052766602909
3696,0.005905578254720668
3697,0.0037594828568688673
3698,0.0009890970853485056
3699,-0.0003340028162670504
3700,-0.0035063298385170708
3701,0.0026375508175207722
3702,0.00372326201705127
3703,0.0007488222435447188
3704,-0.006664477139346977
3705,0.0005133584854399905
3706,0.007519106498060981
3707,-0.001001850201343791
3708,0.002217133404698592
3709,-0.0038380228872413316
3710,0.004039430824834019
3711,0.0016835667145142456
3712,0.005929453856152044
3713,0.003422667794825462
3714,0.0028787937004465408
3715,0.0009528457624312978
3716,-0.008682846740386366
3717,-0.011142377436837582
3718,-0.007592274720573269
3719,-0.012784780964155733
3720,-0.0027116392048921883
3721,0.00011239327133728653
3722,0.006516798360857583
3723,0.008431532302986895
3724,-0.004219883649251488
3725,-0.0056550223674122005
3726,0.0015169229291734834
3727,0.008704619043093425
3728,0.0008501973207021493
3729,0.003433965480193325
3730,0.007362195655867114
3731,-0.00034804418791761077
3732,-0.008519624380507372
3733,0.008262239068078329
3734,-9.38388080380017e-05
3735,0.003832104929139042
3736,-0.00263984704373549
3737,-0.0012150872471850512
3738,0.0036273455009322494
3739,-0.0020641034153600314
3740,-0.00279740581286308
3741,-0.00411252328951068
3742,-0.0006522496777592399
3743,-0.002356053694501553
3744,0.002905063650045576
3745,-0.00592313695646263
3746,-0.0019383613921756006
3747,0.0028662161865407564
3748,0.009028909020617263
3749,0.0012656029472397391
3750,0.0016260737981219214
3751,0.002801605052144966
3752,-0.0027787070650546353
3753,-0.0011585743027093913
3754,-0.0044164090116308365
3755,-0.00043959684185805765
3756,-0.006798101743043324
3757,0.0004950387737524212
3758,1.876212098543377e-05
3759,-0.003907250409426962
3760,0.006343456541676659
3761,0.003058989541299694
3762,0.0034659809748850672
3763,0.0015101968425562991
3764,-0.0008441996835864257
3765,-0.0015287075789743674
3766,0.00630493477155804
3767,0.005398828340120857
3768,0.005514314987982457
3769,-0.0016772582689754054
3770,-0.009416792870650365
3771,-0.010658938108390859
3772,-0.007728630404111454
3773,0.005061071335607001
3774,0.002273170513055713
3775,0.0001454042546009792
3776,-0.010865284595852787
3777,-0.0053549452420495035
3778,0.001165884164703512
3779,-0.0007298921775893159
3780,0.0027177291615794377
3781,0.0042121915280789665
3782,0.007484529777671483
3783,0.012364010793480772
3784,-0.0013769924091592955
3785,-0.0009617005428157986
3786,-0.00022869920815420976
3787,0.0013681546724735663
3788,0.004649402848002018
3789,-0.0029981435829310663
3790,0.002011480956844067
3791,-0.002648327162196762
3792,-0.001998361293370927
3793,0.004793190038210418
3794,-0.004527691493418167
3795,-0.0012959612710679493
3796,-0.00024296374236728452
3797,-0.0023831234039855907
3798,-0.0002273069753671638
3799,-0.0005143399245713083
3800,-0.002546260978515215
3801,-0.006182675656758301
3802,0.0019567530913982296
3803,-0.0037929575065717156
3804,0.0062965943296183985
3805,-0.0024188229813212336
3806,-0.0015421113103998964
3807,-0.000613859983878081
3808,0.00157415286109144
3809,-0.0018533326536524682
3810,-0.0014249853688105734
3811,0.007417515877234459
3812,-0.0012572300064156725
3813,-0.002484419792428168
3814,-0.002450698129970671
3815,-0.0019934690409876
3816,0.0021379290702163538
3817,0.00533118612422699
3818,-0.003223446967539347
3819,0.004277611457940578
3820,0.0036616217109518897
3821,0.0025608881219683632
3822,0.0019285684620868274
3823,0.003456668952713654
3824,-0.0063403885809044085
3825,-0.0005737296412310633
3826,0.004373960385307834
3827,-0.005724482230684145
3828,0.00046462014162862095
3829,0.004041612138856477
3830,0.002097252780487533
3831,-0.0034472831330480576
3832,-0.006012269353517395
3833,0.003060833073586613
3834,0.006166473369954578
3835,6.363279456951358e-05
3836,0.0021006673973420504
3837,-0.0038611080796121227
3838,0.002076654600665853
3839,-0.0032635238389601504
3840,-0.007496287359300503
3841,-0.0038494271835092598
3842,0.0026347442703049005
3843,0.0048634714108557785
3844,-0.002666886511532877
3845,-0.00023710095125082167
3846,-0.006880453319042796
3847,-0.002095019377400438
3848,-0.0006987833309446152
3849,-0.0027795177017510483
3850,-0.0015432744585281242
3851,0.004553269114772175
3852,0.002529359765633737
3853,0.0005634228963665912
3854,0.00013135440405471176
3855,0.0033236428126716417
3856,0.00561809105545312
3857,-0.0031318441686660273
3858,0.0012820739840831083
3859,0.003452429074421554
3860,0.002908799418957799
3861,0.0035822556282707136
3862,0.0006553554110680917
3863,-0.0015889856356610978
3864,0.004067933664043719
3865,-0.009029219781067611
3866,-0.0055796423244439996
3867,0.0031146065880446605
3868,-0.0013767620811043699
3869,0.010657412568238277
3870,0.004287306157362539
3871,-0.0040424243525121785
3872,-0.006448317244872049
3873,-0.005524775262773987
3874,-0.008187523765241744
3875,-0.0048392988117094094
3876,-0.004952132061415213
3877,-0.00779678380543059
3878,0.00315406638703054
3879,0.007809672220953266
3880,0.010466744635504083
3881,0.011407826728284096
3882,0.0049668541445239
3883,-0.002261707509475708
3884,-0.0023271831715845495
3885,-0.0037696262271160654
3886,-0.005328516282292613
3887,-0.007909494670015756
3888,0.00613659621763918
3889,0.001942648900738933
3890,-0.005494882592955712
3891,0.0009733969332851259
3892,0.005639997506448155
3893,0.006426395337063748
3894,0.00284643407653707
3895,0.0013149997423635342
3896,0.0032734990479232253
3897,0.004955424638000637
3898,-0.00912708092187157
3899,-0.006700413448850808
3900,-0.0016350773111740123
3901,-0.0027461144235344636
3902,0.002275237151115968
3903,0.0038727698395525263
3904,0.00993198597807056
3905,0.007629379699838355
3906,-0.0070026695159713034
3907,-0.004453738903620419
3908,-0.011420316112896883
3909,-0.004636193659342102
3910,-0.002393605303099426
3911,0.002394655139962735
3912,0.008916591120008057
3913,0.004277512233363103
3914,0.0013899751942057486
3915,-0.004473200785066913
3916,-0.0020007611119183203
3917,0.000987352681483815
3918,0.005185917657017925
3919,-0.004172509798048988
3920,-0.00533198804060168
3921,-0.005323467619429522
3922,-0.00032487785506544326
3923,-0.0006953524295960087
3924,0.004308420887179005
3925,-0.0008909264036826552
3926,-0.00305762844528342
3927,-0.0023350537011203503
3928,-0.0058601484780451156
3929,-0.0040742861093044525
3930,0.0034264245124640425
3931,0.0046239172883806145
3932,0.00035177414830098175
3933,0.004294812097943319
3934,-0.0033474277254648115
3935,0.004178426268849284
3936,0.004537264548458262
3937,0.0052361345716745635
3938,0.00975837685015855
3939,-0.0004582469688540359
3940,-0.002642305738341906
3941,-0.0025275686197344122
3942,-0.006017873246906053
3943,-0.004916762250538798
3944,0.007219703034617574
3945,0.004950150859188948
3946,0.004831852635536913
3947,0.0020073861489195207
3948,-0.004270654931800606
3949,0.005158261047251588
3950,-0.004436385524070845
3951,-0.005560831209881132
3952,-0.0009699383763382861
3953,-0.0013416270748541504
3954,-0.006229981117532976
3955,-0.0030545108611232177
3956,-0.0075080662463231935
3957,-0.0028477251030224107
3958,0.007081783965001819
3959,0.0035165074384329604
3960,-0.0006926439855208348
3961,-8.662929840352711e-05
3962,-0.0017507504233751116
3963,-0.001571995148771441
3964,0.0029756354351743314
3965,-2.2049403017280686e-05
3966,0.0027345982489079927
3967,0.003033644471012212
3968,0.004221084696840346
3969,0.00823150935712507
3970,0.0011917544811982112
3971,0.00020737367610927128
3972,0.0019133626380313934
3973,-0.002140694519726475
3974,-0.004906948766524663
3975,-0.011693594617169045
3976,-0.0064461913292266325
3977,0.006209984270989981
3978,0.010655015283419639
3979,-0.0033212301116079743
3980,-0.002365688541104213
3981,1.1280317175263281e-05
3982,0.0047413010089843045
3983,-0.0058330542689996896
3984,-0.007877031888382506
3985,0.006926201990668306
3986,0.00855746737986429
3987,-0.0028560317604841966
3988,-0.011308153108000206
3989,-0.005519497504593677
3990,-0.0029867702795505716
3991,0.003072150997440952
3992,-0.0032128615408060744
3993,-0.0016518934802517773
3994,0.0025022648131000844
3995,0.007510484305516829
3996,0.002148571746559722
3997,-0.0003299745112511684
3998,0.00010376806500221776
3999,0.0006339121294951598
4000,0.001510924345961508
4001,-0.0012415694068786936
4002,0.004605633449918798
4003,2.7185387257846333e-05
4004,-0.0035808093933395214
4005,0.001432548857142061
4006,0.00647845537113661
4007,0.0033056283852395205
4008,0.0010502495664204033
4009,0.001558512790903471
4010,-0.001969749914563137
4011,-0.001756869132994587
4012,0.005951198983416853
4013,0.004890649600570152
4014,0.0010870819978315415
4015,-0.0063855608401099185
4016,-0.0033082298907459546
4017,-0.001827540107867954
4018,-0.0010060536414995469
4019,-0.0063232367791175095
4020,-0.006176205500179768
4021,0.002123564002518903
4022,0.0051047554807227835
4023,0.0005651341372777171
4024,-0.006069991634624122
4025,-0.0016034033219497982
4026,-0.005921096691967381
4027,0.004779410906238787
4028,-0.0030413448029039027
4029,0.0027458210446984037
4030,0.0013769257038610226
4031,0.0032465795257394375
4032,0.0033497450550734904
4033,-0.006412707455338007
4034,-0.004195213608410761
4035,-0.00712082273447672
4036,0.0003313653249580207
4037,0.005089591512100597
4038,0.006540614938756035
4039,0.0008786855733862783
4040,0.00447252888179521
4041,-0.0013017716679059078
4042,0.005225652212382123
4043,0.004371678111321279
4044,-0.00044328236162738226
4045,0.006685177788499274
4046,0.0005821857620281297
4047,-0.002721856777237166
4048,-0.0032026744856453017
4049,-0.004615775816059783
4050,-0.006683204136341329
4051,0.0023704291995246853
4052,0.005655912543789999
4053,-0.00021871797774120332
4054,-0.0004594689621677077
4055,-0.005804758695281564
4056,-0.0029568110839398023
4057,-0.0005864004687863057
4058,0.0005123975651078992
4059,-0.0003232624461922719
4060,-0.004590338664984373
4061,0.0005000816305932056
4062,0.000486009787500602
4063,0.0006755746166012874
4064,0.005285771828432197
4065,-0.00425522372539123
4066,-0.0016637809616974917
4067,-0.003009722937855173
4068,-0.004568357957693567
4069,0.00791447365997386
4070,-0.0014512161735560358
4071,0.005419859542929997
4072,0.0027347740942758863
4073,0.000737136869594297
4074,-0.0019879737180492837
4075,0.0031660449132111263
4076,0.013855534431080074
4077,-0.00021418457374616784
4078,-0.005426130492719509
4079,-0.0008230059296123384
4080,0.0015408718505640125
4081,0.004945438808514517
4082,0.003826290376828045
4083,-0.007393399584940848
4084,-0.0018291928830849952
4085,-0.0032762173276056367
4086,-0.004766665300990422
4087,-0.0072753829367150046
4088,-0.0027352474024034045
4089,0.0010344218782953
4090,0.000467559459147936
4091,-0.001862330675913835
4092,2.684195423436741e-05
4093,0.001727710600780065
4094,0.0018211060905401035
4095,-0.0013082361684466047
4096,-0.008556952950429013
4097,0.000953431704985715
4098,0.001367556938107948
4099,0.0038782433104949995
4100,0.0015011406589846843
4101,-0.0019031679112727629
4102,0.002011978871306549
4103,-0.0020395062966596794
4104,5.378619029225082e-05
4105,0.003192191819118931
4106,0.0033728976654656528
4107,0.00737989973944345
4108,0.003908067855316942
4109,-0.005535048630718376
4110,-0.0023111344853916135
4111,0.005248131524220467
4112,-0.0014378339764909362
4113,0.0006542361968084227
4114,0.003870134329650495
4115,0.002103661898509579
4116,-0.0035653441292141696
4117,0.0005401626184820662
4118,-4.065194465729775e-05
4119,0.003649359521240768
4120,0.0010992238990560534
4121,-0.002769501193724614
4122,-0.005070915743535369
4123,-0.005294220581701446
4124,-0.004721916292165472
4125,-0.005612471268381633
4126,0.0034359768791389408
4127,-0.007644980563737948
4128,0.003108552727065823
4129,0.001783825325616389
4130,0.001987293846032443
4131,0.006379201483152363
4132,0.0028208227121828966
4133,0.0007048166460267222
4134,-0.001550389441348732
4135,0.00034122524671745084
4136,0.003192893508851033
4137,-0.0026124541980516586
4138,-0.003863999613152357
4139,0.003727353983858931
4140,-0.007325352534103996
4141,8.313852154725153e-05
4142,-0.000727442737517665
4143,0.00026285236209488104
4144,0.0006009800853245123
4145,0.0002919640523489208
4146,-0.0008783637445660061
4147,-0.001763541563366021
4148,0.007998798258395032
4149,0.005689053351885493
4150,0.008082673097685433
4151,-0.001195814231394309
4152,-0.011086556532848905
4153,-0.002970892185522534
4154,0.003970513566283994
4155,-0.006706480896769732
4156,0.0022620159922282293
4157,0.00165084344288049
4158,-0.00408465922202635
4159,-0.000551123427050557
4160,-0.0018583081004425964
4161,-0.0013749118804492755
4162,-0.000195097159467408
4163,0.0031430208083921794
4164,-0.0018370845483333658
4165,0.007502478076140497
4166,0.008397952568127916
4167,0.000588655604206104
4168,0.0009769856060154224
4169,-0.0005416332980320362
4170,-0.003061211897242241
4171,-0.0008685828577110963
4172,-0.0024648467427440864
4173,-0.007708349092595188
4174,-0.01003117693079263
4175,0.004772340650871617
4176,0.0007481881700681925
4177,0.0006616859632974492
4178,0.00421581693131671
4179,0.0026951185064999824
4180,0.007386674086242771
4181,-0.0018852092819096958
4182,-0.001001222346295915
4183,0.0010636096060356974
4184,0.001437001019960667
4185,0.001958375979828189
4186,-0.004668433562366573
4187,-0.004311985992285277
4188,0.004846373769289383
4189,-0.0075689357647817125
4190,-0.004256526625971006
4191,-0.002532426685846927
4192,0.0053942919212797945
4193,0.008822145963902758
4194,-0.0008806174453631823
4195,0.0021126775242929236
4196,0.0030018074254523665
4197,-0.0020645194215804206
4198,-0.004514537715167346
4199,0.0012640458592680093
4200,-0.003398813785108857
4201,0.00272816522496591
4202,-0.002576434593804534
4203,-0.0015310874752674456
4204,-0.0014078487049308218
4205,-0.0011763766573610647
4206,-0.004931666492962438
4207,-0.00030251865528381494
4208,0.0011735198251326372
4209,-0.002342301329205305
4210,0.0045815157144225675
4211,0.0035296931448148255
4212,0.009695026736124464
4213,0.000534718922629589
4214,-0.0006310069671329023
4215,-0.0005811962544935859
4216,-0.0034745790659423004
4217,-0.0053176216259021485
4218,-0.003804645082479025
4219,0.00028174941608419095
4220,-0.003511188920138776
4221,0.0011110528498477802
4222,0.0018999060206226354
4223,0.0011363468621559264
4224,0.004443685897492139
4225,-0.003763471097043799
4226,0.0077904192853721155
4227,0.005240427373594781
4228,0.00047011316411085975
4229,-0.0021042486914511147
4230,-0.002967607309353697
4231,0.0016675348444632754
4232,-0.0024195776440413532
4233,-0.005674191431071176
4234,-0.0033791624099509202
4235,0.005527191087602783
4236,-0.001916061217127103
4237,0.0012516721928507273
4238,-0.0006300815488325274
4239,-0.001054824313810123
4240,0.0003915745433076146
4241,0.011443315281329459
4242,-0.0004393315980876552
4243,-0.0024958674728653195
4244,7.15464092522055e-05
4245,-0.004798412000445313
4246,0.009627583729556537
4247,0.0025741019419273986
4248,0.0006210199946666637
4249,-0.0009091916714183438
4250,0.00034165845949713555
4251,-0.005186005335080262
4252,-0.006552382057396148
4253,-0.005979080907803045
4254,-0.006448073225841764
4255,-0.0005047912735509641
4256,-0.0032247785377824585
4257,-0.004246557203215411
4258,-0.00031976580626606917
4259,-0.0005876411134000704
4260,0.001466691717574558
4261,-0.0027940914071853395
4262,0.0028884805603981087
4263,0.008251170704066358
4264,-0.001982029061861035
4265,0.004175688778149684
4266,0.009843673832767533
4267,0.005039853400019846
4268,-0.006427337734041444
4269,0.003642924431520091
4270,0.0023471683854385996
4271,-0.0028579453536455787
4272,0.004593124932218104
4273,0.002920878388462493
4274,-0.004644752943628346
4275,0.0013169673375662376
4276,0.004998309042643149
4277,-0.007540051747743779
4278,0.0073559778146655526
4279,-0.00014816184156706512
4280,-0.0025245556324465634
4281,0.003942505098556891
4282,-0.0056102257322193615
4283,-0.001334556090599852
4284,-0.006144610442298898
4285,-0.001392408413988853
4286,0.0013363969583463867
4287,-0.0018551330268016869
4288,-0.004125303270225323
4289,0.0008954703903918939
4290,0.011685314043798207
4291,-0.0017895210476645777
4292,-0.007198956141307947
4293,-0.0037906788351217613
4294,-0.0016041159265165394
4295,-0.008806768170504298
4296,4.409561400265001e-05
4297,0.0039728605794219825
4298,-0.0020855180258825268
4299,0.0034923919503283708
4300,0.008549172626206284
4301,0.004128808848812554
4302,-0.005875439778354308
4303,-0.0017860507514625302
4304,-0.00027351946127949014
4305,0.008931390059373311
4306,-0.0006884820404347534
4307,-0.011984584576999992
4308,-0.0011127512671365563
4309,0.0002698855301321891
4310,0.005171179434068536
4311,0.00821612874720642
4312,0.004364969419136596
4313,0.003831220761772622
4314,0.0008303550109807923
4315,0.0009267443471761699
4316,-0.0012804830435195996
4317,-0.005307646540136213
4318,-0.008526824094066755
4319,-0.0022931251807309008
4320,-0.0017254775992530096
4321,0.0015820571118436207
4322,-0.0049624355850331325
4323,-0.0007384260916093108
4324,-0.005211242899553785
4325,0.0032145273181137593
4326,0.006934107238605854
4327,0.0037114776770407476
4328,0.0073979177374610145
4329,-0.0061639701377313874
4330,0.0028598137511579892
4331,0.0012808444753145982
4332,0.0019008638975080063
4333,0.002329943336620144
4334,0.0030499882439653583
4335,-0.00475651944543278
4336,0.0012511691892115127
4337,-0.0008695484333317086
4338,-0.0025536151294167815
4339,-0.000853039156611354
4340,-0.0041809362300529295
4341,-0.0004656918006889412
4342,0.0023702223816118584
4343,-0.0051947409830910285
4344,-0.0033347255352238134
4345,0.002973314945834967
4346,0.0005629839169438312
4347,0.0019033758437635613
4348,0.002348730780955273
4349,0.0031306604623884387
4350,0.002475937186722968
4351,0.0007301934522064698
4352,-0.0002979268332303194
4353,-0.0028253535240712405
4354,-0.0038025441622908593
4355,-0.0015413758312079378
4356,-0.002781699571343382
4357,-0.002755941656378144
4358,0.0006489092624895713
4359,-0.0006838438748565379
4360,-0.00676941396579843
4361,-0.0007244195723934855
4362,3.657573456350427e-05
4363,0.006152307694994233
4364,0.0007916750560488257
4365,0.004205469232540152
4366,-0.0010440078522625795
4367,0.0028096656283745254
4368,0.00515046066177725
4369,0.0032485441161490686
4370,0.007194927250403413
4371,-8.51610133544593e-05
4372,-0.006532490956117602
4373,-0.0032062481160576436
4374,0.0015039715952294194
4375,-0.007212921530238326
4376,0.0012798559425476596
4377,-0.0013181248936874508
4378,-0.001564931257877161
4379,0.004351057216760653
4380,0.005738824748445577
4381,-0.0011210132576510209
4382,-0.007164314448929023
4383,-0.00039235453182669307
4384,0.0011170896380364743
4385,-0.0005175091760313329
4386,0.0005672433830978246
4387,-0.0005078667549871223
4388,-0.004259423529322504
4389,0.0023439009491188992
4390,0.005139538820877483
4391,-0.004199157023147823
4392,0.0005174775035598368
4393,0.0002869836081633853
4394,0.00012137724173726452
4395,0.00027519260083504714
4396,0.002116663681191705
4397,-0.0022078771199828713
4398,-0.0015661768215414085
4399,0.0062938056460954865
4400,0.0004986376840816105
4401,0.00022481421232593574
4402,-0.005110951797234775
4403,-0.004570224833079853
4404,0.00025746958311244697
4405,-0.004140804012397763
4406,-0.0012913783552623362
4407,0.003931899146062248
4408,0.006697917794659677
4409,-0.0023472991514883936
4410,0.0032557525560877928
4411,-0.0003844581751324735
4412,-0.008164604186598846
4413,0.008640849605863981
4414,0.00015899764676985569
4415,0.004434340502025808
4416,0.0019940017325460677
4417,-0.0010445912553709493
4418,-0.0016825123576810113
4419,-0.0012702817213763682
4420,-0.0009655684136550078
4421,-0.003593304345265151
4422,-0.0001378247336333606
4423,0.0002412480935143138
4424,0.004589550069949515
4425,-0.005233355327240601
4426,0.002163676988974881
4427,0.004197548663788957
4428,-0.004781564261997849
4429,0.004194579064078629
4430,-0.005458171612583821
4431,0.0013828859740999079
4432,-0.00023827280620592785
4433,-0.005202182267952845
4434,0.0008996551364726102
4435,-0.0032392955161162657
4436,0.0015589805648949222
4437,0.0027196396074398764
4438,0.0013205675688217084
4439,-0.003829907063794032
4440,0.003927380568889572
4441,-0.00892292205706608
4442,-0.0035563086358071892
4443,0.004530323970803531
4444,0.006108361102169472
4445,0.0008994405094320986
4446,0.0011090878827610898
4447,-0.0005775344482496919
4448,0.0030590549334442527
4449,0.003241657714290266
4450,-0.0014941639872226315
4451,-0.0016996580892837017
4452,-0.0010170309333889394
4453,0.009804700325619708
4454,-0.001933838295337699
4455,0.00039595518805624237
4456,-0.004018681099753554
4457,0.004819463328569985
4458,-0.002773253248264284
4459,-0.0007656330910061453
4460,0.000806199240890081
4461,-0.003938947625089426
4462,0.00048587342109393354
4463,0.003908793872549206
4464,0.0039823963146267466
4465,-0.0026344343156980074
4466,-0.0037035422350556128
4467,-0.007392182980808102
4468,-0.006328397859740741
4469,-0.0013271756651159795
4470,0.006833903448132423
4471,0.0008701421563753935
4472,-0.0013996330031870252
4473,-0.0021222932659798197
4474,-0.00037089661825067365
4475,-0.000919791302094115
4476,-0.0019112515698909843
4477,-0.0020291342501569786
4478,0.007052881907553051
4479,-0.0005861231934127069
4480,0.0013530249621938224
4481,0.002968683438536561
4482,-0.004272684539622483
4483,0.000463381708543098
4484,0.0006284604898672344
4485,0.0012996429079828072
4486,-0.0015555738251052716
4487,-0.004836807533112834
4488,0.0006526974263956764
4489,0.011107598041910936
4490,0.0025594608533223203
4491,0.005663139499948525
4492,0.0007572671690149572
4493,0.004052609655327004
4494,0.0016252368005454671
4495,-0.0025539401542018
4496,-0.0025677993040198847
4497,-0.007760797191838953
4498,-0.003759533063570893
4499,-0.0022613448470731176
4500,0.007264777452540382
4501,-0.0003067109074165013
4502,-0.004553648167466153
4503,-0.0030425574459726603
4504,-0.00044163705118995585
4505,0.004858395990903038
4506,-0.005839727811625694
4507,-0.011753848584758768
4508,-0.005808713142435765
4509,-0.0015934147418142069
4510,0.004223018242623394
4511,0.00795773525951943
4512,0.007984496777221694
4513,-0.0024705663368000345
4514,0.0026483215156987965
4515,0.004428083308065642
4516,0.0034754162997926597
4517,-0.0020457771190578976
4518,-0.003093326490544517
4519,0.004699244275613445
4520,0.00021192197933126572
4521,0.004758420814512795
4522,-0.0031018795514331093
4523,-0.0003663301682802541
4524,0.0049175078068695284
4525,0.005169150073431047
4526,-0.004103932890978393
4527,-0.001720266082777964
4528,-0.0032207389939780786
4529,-0.0074034121690940815
4530,-0.003939747317437244
4531,-0.0021526346227425134
4532,-0.0014903759540424305
4533,-0.001508873030458084
4534,0.0069436229934106185
